,Old ID,HR,rMSSD,pNN50,SDNN,HF,LF,LFHF,VLF,ULF,Time,Exp,Participant,Step,Seq,ID,No-Step
1,PS-10_001_47_05_28_12_39_18_0.csv,70.70374513,44.24511873,16.78832117,88.14392158,208.9766818,2898.665155,13.87075883,1340.347855,980.1556692,120.6381327,10,1,47,0,10_1_47_0,1-47-0
2,PS-10_001_47_05_28_12_39_18_1.csv,69.43359375,54.84753699,27.85714286,70.25110881,455.6037447,499.2992586,1.095906837,592.2111179,1030.502286,120.4061682,10,1,47,1,10_1_47_1,1-47-1
3,PS-10_001_50_05_28_12_47_34_0.csv,68.39847701,57.92627671,30.21582734,80.91290572,795.3338357,1273.764963,1.601547559,1008.123155,315.3919903,120.6896938,10,1,50,0,10_1_50_0,1-50-0
4,PS-10_002_47_05_28_13_20_43_0.csv,74.02686654,67.08326423,28.76712329,114.0005539,959.2199076,2195.597877,2.288941107,987.1843256,4539.821542,120.2417431,10,2,47,0,10_2_47_0,2-47-0
5,PS-10_002_47_05_28_13_20_43_1.csv,75.14648437,51.67671377,30.87248322,71.53507253,502.8068058,662.6278136,1.317857686,328.1533853,613.8669412,120.0594205,10,2,47,1,10_2_47_1,2-47-1
6,PS-10_002_50_05_28_13_29_06_0.csv,75.12575539,53.95840196,22.58064516,76.45208921,202.7368745,982.7279937,4.847307605,85.24645189,1286.049561,120.7223921,10,2,50,0,10_2_50_0,2-50-0
7,PS-10_002_50_05_28_13_29_06_1.csv,74.51133178,56.8090597,31.61290323,97.05372795,698.2660788,2845.174304,4.074627696,989.6575952,2859.806818,120.7013813,10,2,50,1,10_2_50_1,2-50-1
8,PS-10_002_50_05_28_13_29_06_2.csv,79.76555581,53.39949828,28.84615385,100.9159279,485.6046297,1943.791777,4.002827934,894.2393509,3784.922672,120.2038258,10,2,50,2,10_2_50_2,2-50-2
9,PS-10_003_47_05_28_16_04_33_0.csv,80.10214876,45.54272402,25.92592593,62.72671225,310.7945683,795.2903116,2.558893857,652.0690034,288.9972093,120.2745963,10,3,47,0,10_3_47_0,3-47-0
10,PS-10_003_47_05_28_16_04_33_1.csv,75.79568493,51.75935808,28.75816993,68.89907368,818.1758356,1622.910014,1.983571187,149.3708217,668.2248654,120.2979326,10,3,47,1,10_3_47_1,3-47-1
11,PS-10_003_50_05_28_16_12_39_0.csv,79.19782913,54.86252715,33.5443038,78.29117176,654.8361067,1723.294956,2.631643151,566.4553975,149.5506017,120.1842082,10,3,50,0,10_3_50_0,3-50-0
12,PS-10_003_50_05_28_16_12_39_1.csv,79.907129,48.27415356,24.8447205,65.68350978,243.1852323,663.4671998,2.728238033,742.6220985,374.2990388,120.7342099,10,3,50,1,10_3_50_1,3-50-1
13,PS-10_004_47_05_28_16_34_06_0.csv,81.48232178,50.29296579,29.87804878,67.33449918,496.4965997,589.74915,1.187821126,678.243762,489.5329219,120.4694109,10,4,47,0,10_4_47_0,4-47-0
14,PS-10_004_47_05_28_16_34_06_1.csv,79.63821617,54.46780076,26.08695652,80.73969269,520.0552317,1182.692441,2.27416699,676.2159402,482.9069841,120.2452898,10,4,47,1,10_4_47_1,4-47-1
15,PS-10_004_50_05_28_16_43_28_0.csv,81.32680868,65.25874794,38.32335329,92.54727788,998.3491912,3678.657337,3.684740138,597.4332218,412.0881396,120.4620092,10,4,50,0,10_4_50_0,4-50-0
16,PS-10_004_50_05_28_16_43_28_1.csv,88.14123457,58.65416273,26.85714286,83.81936205,607.8048792,2777.591422,4.569873519,259.4907781,1410.822881,120.1828871,10,4,50,1,10_4_50_1,4-50-1
17,PS-10_005_47_06_01_13_45_31_0.csv,83.33577645,34.7243805,16.07142857,43.85854572,236.1459072,458.9988645,1.943708743,52.03442114,190.9742339,120.6262891,10,5,47,0,10_5_47_0,5-47-0
18,PS-10_005_47_06_01_13_45_31_1.csv,82.11700381,49.95644163,32.31707317,61.31016956,758.6373163,849.1216378,1.119272173,244.9239998,630.1440248,120.4298183,10,5,47,1,10_5_47_1,5-47-1
19,PS-10_005_47_06_01_14_37_37_0.csv,80.859375,26.22253899,7.975460123,39.49872617,156.8603747,369.3521168,2.354655326,127.8089098,56.50225373,120.6113427,10,5,47,0,10_5_47_0,5-47-0
20,PS-10_005_47_06_01_14_37_37_1.csv,83.04809023,29.07015567,6.626506024,36.17779207,272.566926,306.910916,1.126002045,187.6812065,177.4594681,120.1714908,10,5,47,1,10_5_47_1,5-47-1
21,PS-10_005_50_06_01_13_53_48_0.csv,83.5004093,40.27145087,20.71005917,48.04292437,273.1194093,655.5615463,2.400274474,63.65008789,469.7277537,120.7838891,10,5,50,0,10_5_50_0,5-50-0
22,PS-10_005_50_06_01_13_53_48_1.csv,83.46018382,33.79894894,16.66666667,45.57511916,144.6657711,663.5081833,4.586490489,365.2427086,30.71036466,120.0365558,10,5,50,1,10_5_50_1,5-50-1
23,PS-10_005_50_06_01_13_53_48_2.csv,85.23042901,37.94560798,17.54385965,52.05053796,259.5144825,652.5041538,2.514326551,322.7300152,256.9277134,120.1663067,10,5,50,2,10_5_50_2,5-50-2
24,PS-10_005_50_06_01_14_45_39_0.csv,79.16698203,46.18411255,9.615384615,86.15664346,147.8254995,495.1219916,3.349367959,103.7755989,434.2415781,120.5591379,10,5,50,0,10_5_50_0,5-50-0
25,PS-10_005_50_06_01_14_45_39_1.csv,80.62673643,29.3858524,8.125,46.79157449,94.60190257,610.9994098,6.45863765,77.01980126,69.25408799,120.4781249,10,5,50,1,10_5_50_1,5-50-1
26,PS-10_005_50_06_01_14_45_39_2.csv,80.99717172,27.74132835,9.202453988,36.03205424,86.68305303,256.6494336,2.960779814,38.52547972,36.38524939,120.5118774,10,5,50,2,10_5_50_2,5-50-2
27,PS-10_007_47_05_29_15_55_26_0.csv,78.43734071,50.01474963,28.125,77.88418586,298.5350777,1041.66245,3.489246416,1334.345353,1622.540471,120.7473518,10,7,47,0,10_7_47_0,7-47-0
28,PS-10_007_47_05_29_15_55_26_1.csv,79.97664417,47.6503251,22.5,61.24624407,649.88178,697.4417224,1.073182452,469.9638188,711.8664786,120.1292053,10,7,47,1,10_7_47_1,7-47-1
29,PS-10_007_50_05_29_16_03_21_0.csv,79.17871102,47.61925127,26.41509434,70.6485221,478.7590545,438.5485032,0.916010881,1369.065098,693.9968633,120.2923906,10,7,50,0,10_7_50_0,7-50-0
30,PS-10_007_50_05_29_16_03_21_1.csv,77.87230728,49.16899784,29.93630573,71.47493203,705.5453568,769.6600077,1.090872472,428.8120382,889.5647169,120.4948044,10,7,50,1,10_7_50_1,7-50-1
31,PS-10_007_50_05_29_16_03_21_2.csv,82.01542229,40.8441448,19.39393939,65.91381895,195.3718523,762.7043352,3.903859877,555.3055697,251.7314423,120.3386914,10,7,50,2,10_7_50_2,7-50-2
32,PS-10_008_47_05_29_16_09_42_0.csv,92.77265393,39.86037625,17.93478261,63.42247502,223.8138138,580.8311957,2.595153471,1448.217343,1130.615459,120.3238545,10,8,47,0,10_8_47_0,8-47-0
33,PS-10_008_47_05_29_16_09_42_1.csv,95.18196332,43.51756851,21.27659574,55.63272253,386.5715344,849.5480729,2.197647776,331.1278278,158.8672669,120.7327985,10,8,47,1,10_8_47_1,8-47-1
34,PS-10_008_50_05_29_16_17_23_0.csv,88.6823855,44.11068119,23.29545455,72.60362284,379.8244406,587.1311555,1.545796144,156.4044055,1142.212955,120.5990886,10,8,50,0,10_8_50_0,8-50-0
35,PS-10_009_47_05_31_20_19_42_0.csv,74.12997126,53.20403425,29.33333333,66.86770511,400.936884,571.4694618,1.42533522,144.1064169,310.7061673,120.431863,10,9,47,0,10_9_47_0,9-47-0
36,PS-10_009_47_05_31_20_19_42_1.csv,74.83854151,54.88422324,30.6122449,101.9285423,932.7396873,1941.806673,2.081831298,126.5566909,1599.641065,120.1326974,10,9,47,1,10_9_47_1,9-47-1
37,PS-10_009_50_05_31_20_28_01_0.csv,81.89507867,63.11044358,34.35582822,98.03981795,904.6378905,1309.284139,1.447301902,136.9786098,1542.188998,120.5262293,10,9,50,0,10_9_50_0,9-50-0
38,PS-10_009_50_05_31_20_28_01_1.csv,79.29567211,60.0477081,35.22012579,78.3094663,1173.536975,1806.052124,1.538981867,276.6391491,294.6294469,120.7107336,10,9,50,1,10_9_50_1,9-50-1
39,PS-10_010_47_05_29_13_00_30_0.csv,71.47138745,57.89607378,22.22222222,85.00922,652.8998272,1842.657724,2.822267134,375.5758787,1036.756262,120.6421218,10,10,47,0,10_10_47_0,10-47-0
40,PS-10_010_47_05_29_13_00_30_1.csv,76.70800186,49.04113742,27.56410256,69.31961649,455.7007156,1282.47751,2.814297775,102.6452846,1082.607602,120.2447158,10,10,47,1,10_10_47_1,10-47-1
41,PS-10_010_50_05_29_13_08_48_0.csv,76.44034794,40.50834204,17.8343949,73.59202862,248.9091666,1320.427988,5.304858822,519.9069418,438.8049598,120.4505491,10,10,50,0,10_10_50_0,10-50-0
42,PS-10_010_50_05_29_13_08_48_1.csv,76.04957295,46.18275493,21.42857143,70.80424366,264.8180022,1966.153106,7.424544743,956.0575823,178.1278803,120.3820291,10,10,50,1,10_10_50_1,10-50-1
43,PS-10_010_50_05_29_13_08_48_2.csv,76.80922753,48.47882829,21.65605096,66.53291198,723.2138597,1181.457109,1.633620668,108.6365914,781.1481749,120.357045,10,10,50,2,10_10_50_2,10-50-2
44,PS-10_011_47_05_27_10_47_46_0.csv,72.95800767,33.38147937,10.66666667,53.0485336,258.9832106,950.8474039,3.671463497,142.70565,521.6742104,120.5983074,10,11,47,0,10_11_47_0,11-47-0
45,PS-10_011_47_05_27_10_47_46_1.csv,73.39314074,46.33221081,25.33333333,77.00885959,639.4868861,2192.395769,3.42836705,367.1429975,531.4686758,120.383991,10,11,47,1,10_11_47_1,11-47-1
46,PS-10_011_50_05_27_10_55_24_0.csv,74.50705973,62.19837976,32.66666667,75.47364399,971.436064,1321.169594,1.360017034,416.2331828,1043.944502,120.1904295,10,11,50,0,10_11_50_0,11-50-0
47,PS-10_011_50_05_27_10_55_24_1.csv,72.71862022,55.49074367,21.23287671,101.1636948,554.7426771,1651.635427,2.977300098,189.731334,3817.198411,120.249078,10,11,50,1,10_11_50_1,11-50-1
48,PS-10_012_47_05_27_10_41_29_0.csv,78.90102109,34.93154482,11.875,58.1219835,205.5492215,437.667903,2.129260815,351.9307117,155.3796725,120.1717228,10,12,47,0,10_12_47_0,12-47-0
49,PS-10_012_47_05_27_10_41_29_1.csv,82.43758188,37.76204232,13.69047619,46.22704731,137.8371201,369.2117737,2.678609169,112.7632262,176.828308,120.5565521,10,12,47,1,10_12_47_1,12-47-1
50,PS-10_012_50_05_27_10_49_18_0.csv,80.41994,40.32389818,20.98765432,55.15487096,241.6755662,505.6548257,2.092287746,106.0032742,296.2399426,120.1581543,10,12,50,0,10_12_50_0,12-50-0
51,PS-10_013_47_05_27_13_39_00_0.csv,73.481639,47.29462268,25.34246575,83.93107328,412.0880631,750.4666649,1.821131773,391.8951587,1885.199719,120.1190876,10,13,47,0,10_13_47_0,13-47-0
52,PS-10_013_47_05_27_13_39_00_1.csv,75.58586103,47.58466356,25,67.31838812,196.901431,811.9212507,4.123490858,188.8063977,675.1712151,120.5575897,10,13,47,1,10_13_47_1,13-47-1
53,PS-10_013_47_05_27_13_39_00_2.csv,73.44941559,52.69604961,28.36879433,71.55246013,208.4691907,2716.758925,13.03194451,5031.208064,5279.316905,120.200265,10,13,47,2,10_13_47_2,13-47-2
54,PS-10_013_50_05_27_13_47_56_0.csv,67.80704076,42.26805756,20.4379562,57.88243191,234.2851031,491.4423677,2.097625334,292.0013014,919.9834182,120.4096572,10,13,50,0,10_13_50_0,13-50-0
55,PS-10_014_50_05_27_14_02_07_0.csv,78.91778847,33.00263489,11.46496815,53.05876861,206.7034894,614.3099307,2.971937883,256.7856487,683.0196487,120.2375529,10,14,50,0,10_14_50_0,14-50-0
56,PS-10_015_47_06_02_13_59_50_0.csv,72.75299558,33.36371452,12.32876712,43.35973545,222.8177997,303.5798939,1.362458001,128.8214472,310.4784689,120.3302909,10,15,47,0,10_15_47_0,15-47-0
57,PS-10_015_47_06_02_13_59_50_1.csv,71.30094298,44.16136556,16.78321678,56.23608622,336.5313493,900.3753068,2.675457453,655.6663783,68.35494155,120.1095371,10,15,47,1,10_15_47_1,15-47-1
58,PS-10_015_50_06_02_14_07_59_0.csv,71.97066759,36.77459046,15.38461538,57.43766091,154.3596762,296.6409797,1.921751761,245.8933596,72.14527933,120.0557696,10,15,50,0,10_15_50_0,15-50-0
59,PS-10_015_50_06_02_14_07_59_1.csv,71.62808605,39.06838696,13.88888889,48.0366002,234.2779996,419.1881415,1.789276595,340.3059997,129.7359239,120.4082874,10,15,50,1,10_15_50_1,15-50-1
60,PS-10_015_50_06_02_14_07_59_2.csv,72.29062053,35.29721828,14.28571429,46.70208887,241.0050776,484.5425624,2.010507692,467.15232,130.4064414,120.147578,10,15,50,2,10_15_50_2,15-50-2
61,PS-10_016_47_05_31_14_10_46_0.csv,73.86380424,17.57982934,1.342281879,46.77500876,81.85153158,640.7866892,7.828646291,120.8482958,433.8724221,120.6734417,10,16,47,0,10_16_47_0,16-47-0
62,PS-10_016_47_05_31_14_10_46_1.csv,74.64138934,42.55933773,16.89189189,74.72902989,170.4588497,1067.063742,6.259949212,1023.606376,938.4200083,120.7172744,10,16,47,1,10_16_47_1,16-47-1
63,PS-10_016_50_05_31_14_18_44_0.csv,71.81351489,35.81517585,13.10344828,50.84828242,286.5255148,534.7962506,1.866487356,203.9739553,270.2475096,120.1244149,10,16,50,0,10_16_50_0,16-50-0
64,PS-10_016_50_05_31_14_18_44_1.csv,71.25200534,23.22581892,5.594405594,31.88637961,60.08555776,275.1297929,4.578967113,100.5925112,84.32983874,120.0385863,10,16,50,1,10_16_50_1,16-50-1
65,PS-10_016_50_05_31_14_18_44_2.csv,69.94237501,37.27254078,13.38028169,48.25339582,517.1721433,636.1139631,1.22998497,240.926779,409.1387901,120.39101,10,16,50,2,10_16_50_2,16-50-2
66,PS-10_016_50_05_31_14_18_44_3.csv,68.26043272,16.44257331,2.173913043,33.23561642,25.94225033,83.44936445,3.216735765,100.5709929,175.0505382,120.254147,10,16,50,3,10_16_50_3,16-50-3
67,PS-10_017_47_05_27_16_59_12_0.csv,71.83934633,31.89852303,12.5,52.89681091,195.2124557,773.667611,3.963208231,546.6863051,191.2269696,120.0128715,10,17,47,0,10_17_47_0,17-47-0
68,PS-10_017_47_05_27_16_59_12_1.csv,71.60581946,22.75444384,4.166666667,35.53578918,128.3518277,306.8126965,2.390403799,69.9759959,218.1713164,120.6711998,10,17,47,1,10_17_47_1,17-47-1
69,PS-10_017_50_05_27_17_07_17_0.csv,70.20650408,29.57976889,10.63829787,46.90098439,138.5687349,295.5081178,2.132574263,106.6247138,578.737168,120.3290666,10,17,50,0,10_17_50_0,17-50-0
70,PS-10_017_50_05_27_17_07_17_1.csv,70.3125,29.97677152,9.79020979,52.74233306,229.3201189,885.4146305,3.861042088,378.0482137,480.4784562,120.370472,10,17,50,1,10_17_50_1,17-50-1
71,PS-10_017_50_05_27_17_07_17_2.csv,69.86139082,18.76666082,2.142857143,29.71411814,54.84734154,158.5847785,2.891384961,76.62885449,88.92077983,120.2060758,10,17,50,2,10_17_50_2,17-50-2
72,PS-10_017_50_05_27_17_07_17_3.csv,70.6212803,35.23429323,8.450704225,60.33430455,238.9922011,807.8552303,3.38025771,562.1768246,795.5587187,120.7612758,10,17,50,3,10_17_50_3,17-50-3
73,PS-10_018_47_05_27_16_31_52_0.csv,79.39172904,49.04940444,22.78481013,102.6531292,335.8280263,1222.853058,3.641307343,296.6011319,1870.984882,120.7168211,10,18,47,0,10_18_47_0,18-47-0
74,PS-10_018_47_05_27_16_31_52_1.csv,84.49008859,45.87817291,22.02380952,79.75220519,354.324673,520.0870688,1.467826286,602.2465171,1549.516984,120.0634325,10,18,47,1,10_18_47_1,18-47-1
75,PS-10_018_50_05_27_16_39_49_0.csv,77.05292634,50.81293962,27.92207792,71.51384444,283.5798313,976.2039938,3.44243097,742.0323521,651.5651107,120.4018186,10,18,50,0,10_18_50_0,18-50-0
76,PS-10_018_50_05_27_16_39_49_1.csv,84.16923742,48.57032442,25.74850299,68.271873,361.9580736,592.4134042,1.636690676,410.850638,500.7322756,120.5787234,10,18,50,1,10_18_50_1,18-50-1
77,PS-10_018_50_05_27_16_39_49_2.csv,84.81445312,40.3564659,19.04761905,82.50121645,120.5035894,569.6836125,4.727524013,53.75410778,596.9209927,120.6081911,10,18,50,2,10_18_50_2,18-50-2
78,PS-10_019_47_05_27_19_27_34_0.csv,53.17382813,49.40953576,13.39285714,103.5900315,133.5484061,1390.34775,10.410815,903.2877965,3127.045897,120.7379996,10,19,47,0,10_19_47_0,19-47-0
79,PS-10_019_47_05_27_19_27_34_1.csv,54.4921875,48.38979245,17.27272727,70.36501685,175.4541398,409.0645758,2.331461521,99.32518314,270.5010593,120.4848317,10,19,47,1,10_19_47_1,19-47-1
80,PS-10_019_47_05_27_19_27_34_2.csv,54.75535894,34.50116366,6.306306306,62.1064697,169.3275456,402.3349004,2.376074719,176.2137215,971.9301588,120.5656176,10,19,47,2,10_19_47_2,19-47-2
81,PS-10_019_50_05_27_19_35_51_0.csv,53.61328125,65.32430815,27.45098039,99.11868942,452.8427349,2876.16969,6.351365426,1108.090007,2404.654522,121.1301928,10,19,50,0,10_19_50_0,19-50-0
82,PS-10_019_50_05_27_19_35_51_1.csv,53.41553191,62.0067851,23.36448598,87.8899851,447.7793749,1980.177152,4.422216081,219.4687428,1609.406801,120.3250785,10,19,50,1,10_19_50_1,19-50-1
83,PS-10_021_47_05_28_20_10_00_0.csv,78.23607155,54.30576087,30.37974684,88.77126454,337.2910474,1757.559507,5.210809836,542.0671156,780.6983702,120.6711061,10,21,47,0,10_21_47_0,21-47-0
84,PS-10_021_47_05_28_20_10_00_1.csv,75.8871717,56.40254853,29.48717949,87.45361896,242.1692164,857.6145943,3.541385676,410.308988,250.4080803,120.0852854,10,21,47,1,10_21_47_1,21-47-1
85,PS-10_022_50_05_28_20_03_30_0.csv,69.80963126,35.55531828,15,57.6479163,301.1402314,532.2360093,1.767402538,352.2013028,901.0054579,120.6598592,10,22,50,0,10_22_50_0,22-50-0
86,PS-10_023_47_05_29_20_08_34_0.csv,76.89909635,29.90916352,7.096774194,42.91159467,99.22118692,186.7126916,1.881782484,49.87870072,168.9334916,120.3639374,10,23,47,0,10_23_47_0,23-47-0
87,PS-10_023_47_05_29_20_08_34_1.csv,78.68965473,31.78066913,9.554140127,44.04546114,102.9130008,528.6313862,5.136682269,93.46861257,122.186151,120.0631121,10,23,47,1,10_23_47_1,23-47-1
88,PS-10_023_50_05_29_20_16_47_0.csv,78.21082442,33.57737321,13.37579618,47.62918047,153.8867636,473.0640204,3.074104681,122.1669987,506.6555146,120.1066311,10,23,50,0,10_23_50_0,23-50-0
89,PS-10_023_50_05_29_20_16_47_1.csv,76.03539588,39.13151156,16.55629139,65.78401332,295.8408997,1328.341975,4.490055215,848.7132685,348.2817334,120.2978023,10,23,50,1,10_23_50_1,23-50-1
90,PS-10_023_50_05_29_20_16_47_2.csv,79.50085834,37.24177859,14.9068323,54.53720067,274.0753938,653.413996,2.384066614,55.18833019,707.1774776,120.0169476,10,23,50,2,10_23_50_2,23-50-2
91,PS-10_024_47_05_29_20_13_09_0.csv,81.46774662,41.05043891,12.57861635,89.29445166,278.9168805,410.9696517,1.473448473,112.1587968,915.3392581,120.6320515,10,24,47,0,10_24_47_0,24-47-0
92,PS-10_024_47_05_29_20_13_09_1.csv,76.66368435,44.95221437,18.83116883,109.3345895,369.1611501,1687.049052,4.569952857,3156.4511,4659.555089,120.0917922,10,24,47,1,10_24_47_1,24-47-1
93,PS-10_024_50_05_29_20_21_07_0.csv,85.25390625,40.97584516,21.89349112,72.28781961,334.1747939,754.8076143,2.258720969,303.342514,600.3879238,120.2395919,10,24,50,0,10_24_50_0,24-50-0
94,PS-10_025_47_05_31_10_55_49_0.csv,71.79952486,23.34459184,3.448275862,58.29023627,109.274701,373.6406099,3.419278263,290.5378458,782.0974979,120.718156,10,25,47,0,10_25_47_0,25-47-0
95,PS-10_025_47_05_31_10_55_49_1.csv,72.94921875,33.53596027,14.48275862,70.2898444,176.7355763,1104.190479,6.247697842,1648.955325,951.5652075,120.2894547,10,25,47,1,10_25_47_1,25-47-1
96,PS-10_025_50_05_31_11_04_01_0.csv,69.29332624,30.26702689,8.633093525,62.95529969,161.7351316,384.3605975,2.376481805,540.6132189,1003.112203,120.9101256,10,25,50,0,10_25_50_0,25-50-0
97,PS-10_025_50_05_31_11_04_01_1.csv,68.01334425,44.34571044,18.43971631,102.9064154,221.8944762,519.1225758,2.339502022,498.3725415,5867.704716,120.7688953,10,25,50,1,10_25_50_1,25-50-1
98,PS-10_025_50_05_31_11_04_01_2.csv,67.28926812,45.27298706,22.05882353,67.93205525,433.7224168,1142.306815,2.633727866,67.9164804,741.8693288,120.0945456,10,25,50,2,10_25_50_2,25-50-2
99,PS-10_026_47_06_01_17_12_02_0.csv,68.0537644,50.18013311,24.63768116,61.41759081,614.4222821,986.8617588,1.606162061,413.4318704,119.1839722,120.1581636,10,26,47,0,10_26_47_0,26-47-0
100,PS-10_026_47_06_01_17_12_02_1.csv,68.08937199,50.60321192,27.3381295,80.84827975,481.3669778,1326.412248,2.75551151,199.6089625,754.1273921,120.8590418,10,26,47,1,10_26_47_1,26-47-1
101,PS-10_026_50_06_01_17_20_11_0.csv,62.29651775,77.09427907,39.53488372,105.0994355,622.235502,1912.40213,3.073437829,196.312406,2912.595286,120.9695246,10,26,50,0,10_26_50_0,26-50-0
102,PS-10_027_47_05_30_19_54_47_0.csv,76.01554239,53.33713671,26.14379085,83.54676377,407.7313589,1674.405835,4.106639821,262.9498534,1081.067133,120.5571513,10,27,47,0,10_27_47_0,27-47-0
103,PS-10_027_47_05_30_19_54_47_1.csv,78.67020491,48.78349909,24.6835443,74.08943123,388.3143273,1113.104351,2.866503429,2303.493966,982.3683776,120.0436732,10,27,47,1,10_27_47_1,27-47-1
104,PS-10_027_50_05_30_20_02_47_0.csv,72.0336499,65.32187116,33.56164384,101.2738757,800.9178916,2181.241195,2.72342673,1144.314994,376.6206339,120.6656238,10,27,50,0,10_27_50_0,27-50-0
105,PS-10_027_50_05_30_20_02_47_1.csv,66.35694314,52.71584514,27.00729927,100.9381761,299.2758242,1258.290868,4.2044521,516.8338858,2863.679661,120.1561933,10,27,50,1,10_27_50_1,27-50-1
106,PS-10_027_50_05_30_20_02_47_2.csv,74.60130257,50.7522216,26.71232877,83.42342235,499.1514269,1373.507787,2.751685587,100.5236483,792.6437067,120.4426402,10,27,50,2,10_27_50_2,27-50-2
107,PS-10_028_47_05_29_13_21_08_0.csv,76.00070201,56.49490053,29.41176471,76.41453003,480.0490235,849.2983678,1.769190908,181.6661444,1089.48743,120.6712836,10,28,47,0,10_28_47_0,28-47-0
108,PS-10_028_47_05_29_13_21_08_1.csv,74.08758196,63.13249689,33.55704698,85.39183285,594.9971385,1704.974043,2.865516374,794.4990688,1086.890097,120.4561298,10,28,47,1,10_28_47_1,28-47-1
109,PS-10_028_47_05_29_13_21_08_2.csv,74.61587524,49.53503153,28.66666667,70.75470441,337.6847019,1133.251382,3.355945283,588.2775134,771.6228588,120.4092737,10,28,47,2,10_28_47_2,28-47-2
110,PS-10_028_50_05_29_13_30_42_0.csv,76.65792921,37.7570839,18.83116883,58.76612782,262.7942142,763.9601763,2.907066195,782.026254,451.1229359,120.1876448,10,28,50,0,10_28_50_0,28-50-0
111,PS-10_028_50_05_29_13_30_42_1.csv,74.13845386,33.69938736,13.24503311,55.9451607,171.1572811,644.4718094,3.765377699,334.089028,667.3064992,120.729067,10,28,50,1,10_28_50_1,28-50-1
112,PS-10_028_50_05_29_13_30_42_2.csv,74.92093617,38.17853191,19.86754967,59.37926297,306.5384186,1116.602296,3.642617786,441.5987741,259.1140036,120.411363,10,28,50,2,10_28_50_2,28-50-2
113,PS-10_029_50_05_30_13_49_54_0.csv,78.8442421,44.2178903,17.94871795,83.43715166,287.269716,483.9475646,1.684645257,178.7632776,764.3650771,120.2615082,10,29,50,0,10_29_50_0,29-50-0
114,PS-10_029_50_05_30_13_49_54_1.csv,83.37140007,29.90765882,10.11904762,37.96484998,162.2835978,232.734133,1.434119875,89.61480507,72.61498694,120.5673597,10,29,50,1,10_29_50_1,29-50-1
115,PS-10_030_47_05_30_14_13_40_0.csv,72.97541381,41.8494119,15.54054054,57.8334267,368.0474642,685.5426727,1.862647455,136.2877147,202.1234397,120.7379007,10,30,47,0,10_30_47_0,30-47-0
116,PS-10_030_47_05_30_14_13_40_1.csv,71.85279267,50.07897206,27.39726027,63.32178761,628.4466129,463.0095918,0.736752466,704.4473187,621.714188,120.3450802,10,30,47,1,10_30_47_1,30-47-1
117,PS-10_030_50_05_30_14_20_44_0.csv,74.08437877,48.36544984,25.65789474,69.40106954,546.2041961,2386.806519,4.369806267,345.4298025,193.5463413,120.3033155,10,30,50,0,10_30_50_0,30-50-0
118,PS-10_031_47_05_31_14_20_05_0.csv,72.42521,39.54232823,17.80821918,48.136597,309.2631669,538.5241726,1.741313646,141.1091887,53.3301399,120.0288705,10,31,47,0,10_31_47_0,31-47-0
119,PS-10_031_47_05_31_14_20_05_1.csv,70.1016512,40.09879587,19.71830986,54.92239597,199.5859138,1187.074504,5.947686793,146.4182785,453.1563373,120.805395,10,31,47,1,10_31_47_1,31-47-1
120,PS-10_031_50_05_31_14_28_30_0.csv,70.17746633,42.26672384,14.89361702,52.14739779,256.3393372,593.9522525,2.317054647,89.07414207,164.8516191,120.8307649,10,31,50,0,10_31_50_0,31-50-0
121,PS-10_031_50_05_31_14_28_30_1.csv,70.50480144,37.12012971,13.98601399,56.93669358,223.998981,1240.640095,5.538597046,179.5555071,174.1650291,120.6037543,10,31,50,1,10_31_50_1,31-50-1
122,PS-10_031_50_05_31_14_28_30_2.csv,74.14836222,29.64500167,7.382550336,41.88838421,200.8717504,433.1376524,2.156289531,273.2295559,237.186915,120.336926,10,31,50,2,10_31_50_2,31-50-2
123,PS-10_032_47_05_31_16_34_00_0.csv,72.22479154,48.78699067,29.45205479,58.66602186,468.7954034,776.1788903,1.655687928,508.5884799,426.2880261,120.689629,10,32,47,0,10_32_47_0,32-47-0
124,PS-10_032_47_05_31_16_34_00_1.csv,73.55882062,54.17406699,28.36879433,87.22632446,334.6146998,1765.280154,5.275560683,639.05862,1700.609172,120.0150384,10,32,47,1,10_32_47_1,32-47-1
125,PS-10_032_50_05_31_16_42_14_0.csv,73.20606772,46.53107214,19.8630137,68.63966511,331.70501,1325.920131,3.997287019,564.4685127,497.304037,120.2430245,10,32,50,0,10_32_50_0,32-50-0
126,PS-10_033_47_05_31_17_11_18_0.csv,71.62981031,52.79277424,29.16666667,64.91914855,494.3690162,1199.912791,2.427160181,146.0986497,400.9321273,120.6294399,10,33,47,0,10_33_47_0,33-47-0
127,PS-10_033_47_05_31_17_11_18_1.csv,73.74321501,50.9865875,30.87248322,67.40233453,474.897393,2367.670296,4.985646017,162.3130072,125.0473478,120.0449619,10,33,47,1,10_33_47_1,33-47-1
128,PS-10_033_50_05_31_17_19_45_0.csv,71.9824819,49.1514995,25.51724138,76.10975355,635.0810306,1768.992382,2.78545933,1220.646106,843.4967809,120.8151108,10,33,50,0,10_33_50_0,33-50-0
129,PS-10_033_50_05_31_17_19_45_1.csv,71.48939527,60.32021099,35.17241379,96.10679425,481.7710524,2785.687456,5.782181064,743.6930889,1446.981476,120.3751603,10,33,50,1,10_33_50_1,33-50-1
130,PS-10_033_50_05_31_17_19_45_2.csv,71.12424336,47.97363008,27.08333333,66.27747582,228.2271484,1167.674765,5.116283376,1151.965218,567.2342695,120.1316194,10,33,50,2,10_33_50_2,33-50-2
131,PS-10_035_47_06_01_10_33_47_0.csv,76.87877855,28.53982449,8.496732026,60.79605849,94.64097966,181.68478,1.919726324,52.48234331,247.1385536,120.597849,10,35,47,0,10_35_47_0,35-47-0
132,PS-10_035_47_06_01_10_33_47_1.csv,79.2599556,26.70585926,5.696202532,44.98894661,60.9696459,111.3320907,1.826024886,107.988263,191.7078287,120.4677803,10,35,47,1,10_35_47_1,35-47-1
133,PS-10_035_50_06_01_10_42_43_0.csv,74.44751035,20.61558345,5.369127517,33.18499637,26.3053696,231.1923033,8.788787491,84.16948953,111.6325674,120.0689006,10,35,50,0,10_35_50_0,35-50-0
134,PS-10_035_50_06_01_10_42_43_1.csv,75.84336707,27.93090759,7.894736842,41.78206588,124.2136308,421.078972,3.389957843,212.8130968,386.8426838,120.5674847,10,35,50,1,10_35_50_1,35-50-1
135,PS-10_035_50_06_01_10_42_43_2.csv,72.53841636,30.91533335,5.442176871,57.40716951,144.2761369,412.5688889,2.859578151,598.0945444,434.0667395,120.582388,10,35,50,2,10_35_50_2,35-50-2
136,PS-10_036_47_06_02_10_13_30_0.csv,73.51616343,36.19141713,9.395973154,80.3606703,38.69308487,513.50578,13.27125458,305.2414798,1576.459403,120.5523428,10,36,47,0,10_36_47_0,36-47-0
137,PS-10_036_47_06_02_10_13_30_1.csv,70.93585732,29.80457714,7.586206897,48.12735278,122.5548976,215.4512343,1.75799775,302.1251121,639.0915652,120.4719547,10,36,47,1,10_36_47_1,36-47-1
138,PS-10_036_50_06_02_10_21_49_0.csv,72.27605206,30.00090572,9.523809524,58.41514672,254.2339776,553.8578918,2.178536075,367.6180203,1237.279515,120.2287129,10,36,50,0,10_36_50_0,36-50-0
139,PS-10_037_47_06_01_11_21_49_0.csv,70.97990342,54.11398095,29.16666667,87.78095062,384.2049713,1392.817661,3.62519427,616.3028239,1690.103029,120.4442686,10,37,47,0,10_37_47_0,37-47-0
140,PS-10_037_47_06_01_11_21_49_1.csv,68.79795394,73.62287518,40.1459854,94.03441414,537.2580469,1988.924749,3.70199155,632.7117115,933.1125474,120.2969189,10,37,47,1,10_37_47_1,37-47-1
141,PS-10_037_50_06_01_11_31_21_0.csv,72.36505379,44.45896564,22.60273973,70.32256245,308.3709542,1570.808796,5.093893491,377.0431274,136.809867,120.8521577,10,37,50,0,10_37_50_0,37-50-0
142,PS-10_037_50_06_01_11_31_21_1.csv,72.49350484,48.04798892,25.51724138,70.32362679,299.8504593,608.4680819,2.029238452,439.2174945,1103.863206,120.6083876,10,37,50,1,10_37_50_1,37-50-1
143,PS-10_037_50_06_01_11_31_21_2.csv,74.97417475,43.56272737,21.85430464,60.85975862,482.5432207,1106.088866,2.292206829,758.2515133,288.7127326,120.3500157,10,37,50,2,10_37_50_2,37-50-2
144,PS-10_038_47_06_02_10_47_05_0.csv,71.06288341,44.86714844,21.91780822,74.75838227,218.5631587,518.6835392,2.373151735,593.4430183,617.3881357,120.6404082,10,38,47,0,10_38_47_0,38-47-0
145,PS-10_038_47_06_02_10_47_05_1.csv,73.38806258,41.92012349,17.44966443,44.56068096,240.8616879,222.5182562,0.923842468,189.4562357,278.0153332,120.3155429,10,38,47,1,10_38_47_1,38-47-1
146,PS-10_038_50_06_02_10_55_01_0.csv,76.15183468,64.26915437,37.57961783,89.95277484,483.9977115,1910.328753,3.946978895,465.4380382,511.6955917,120.4774924,10,38,50,0,10_38_50_0,38-50-0
147,PS-10_040_47_06_01_19_51_34_0.csv,62.40234375,16.50983707,0.787401575,45.63106956,57.79497114,287.7926167,4.979544258,297.9261506,437.7614663,120.2818862,10,40,47,0,10_40_47_0,40-47-0
148,PS-10_040_47_06_01_19_51_34_1.csv,64.46489188,23.31819447,4.580152672,42.41868815,47.65984802,131.5278827,2.759720984,396.6182704,414.840035,120.8031906,10,40,47,1,10_40_47_1,40-47-1
149,PS-10_040_47_06_01_19_51_34_2.csv,63.29784691,21.4075324,2.362204724,38.50002778,52.20318916,465.8270837,8.923345322,84.17450135,283.3492921,120.5079694,10,40,47,2,10_40_47_2,40-47-2
150,PS-10_040_50_06_01_20_00_00_0.csv,65.62172819,26.15884578,6.818181818,43.85370404,129.0587022,348.0115255,2.696536689,132.152307,497.6828837,120.2126801,10,40,50,0,10_40_50_0,40-50-0
151,PS-10_040_50_06_01_20_00_00_1.csv,63.75307668,31.73391167,10.76923077,49.95416758,273.774129,665.9227898,2.43238027,351.0535999,320.0546754,120.5240377,10,40,50,1,10_40_50_1,40-50-1
152,PS-10_040_50_06_01_20_00_00_2.csv,61.83964104,21.3443997,4,24.58499919,49.5700234,138.8996206,2.802089066,38.12306195,52.6218274,120.3769401,10,40,50,2,10_40_50_2,40-50-2
153,PS-10_040_50_06_01_20_00_00_3.csv,62.63235659,34.91013836,10.15625,61.92251003,157.4241543,832.2158544,5.286455931,751.1672476,656.2145571,120.5585544,10,40,50,3,10_40_50_3,40-50-3
154,PS-10_041_47_05_30_16_56_13_0.csv,76.90429687,23.51536849,5.806451613,46.35924944,72.43361487,158.4791135,2.187922192,17.64503109,317.9228826,120.4109441,10,41,47,0,10_41_47_0,41-47-0
155,PS-10_041_47_05_30_16_56_13_1.csv,74.70703125,18.67588873,2.649006623,34.19184496,40.21632222,200.8511986,4.994270671,65.36005793,399.2892771,120.3669607,10,41,47,1,10_41_47_1,41-47-1
156,PS-10_041_50_05_30_17_04_21_0.csv,73.56049208,18.35146557,2.027027027,44.13227907,50.70392287,137.5496432,2.712800814,146.6433427,785.2320451,120.3349799,10,41,50,0,10_41_50_0,41-50-0
157,PS-10_041_50_05_30_17_04_21_1.csv,75.14648438,30.54558136,8.053691275,56.50681378,373.8742542,999.0406456,2.672130093,729.9412139,2025.766718,120.3357686,10,41,50,1,10_41_50_1,41-50-1
158,PS-10_041_50_05_30_17_04_21_2.csv,77.05979491,23.9386826,5.844155844,35.00736887,114.9436862,509.8626421,4.43576032,91.78364586,321.8252274,120.0525924,10,41,50,2,10_41_50_2,41-50-2
159,PS-10_041_50_05_30_17_04_21_3.csv,77.52723169,23.92423135,7.051282051,43.32314717,114.2695385,424.0650295,3.711094269,110.0082027,709.0573569,120.4977922,10,41,50,3,10_41_50_3,41-50-3
160,PS-10_043_47_06_02_14_18_11_0.csv,65.45509514,41.89728033,20.14925373,72.6905927,450.7380058,747.8825998,1.659240158,76.59795193,2070.034245,120.8060573,10,43,47,0,10_43_47_0,43-47-0
161,PS-10_043_47_06_02_14_18_11_1.csv,65.91796875,37.03878145,11.45038168,75.03907409,278.8066675,1137.547909,4.080059917,1406.942652,1880.665751,120.0519976,10,43,47,1,10_43_47_1,43-47-1
162,PS-10_043_47_06_02_14_18_11_2.csv,63.26136823,35.0348674,11.9047619,59.57266406,43.44207678,593.4786632,13.66137872,204.6884025,454.4326893,120.1568765,10,43,47,2,10_43_47_2,43-47-2
163,PS-10_043_50_06_02_14_26_37_0.csv,61.65781323,29.12844926,3.333333333,61.15174299,117.0208486,1909.291496,16.31582337,185.4773429,724.0259097,120.1399245,10,43,50,0,10_43_50_0,43-50-0
164,PS-10_043_50_06_02_14_26_37_1.csv,60.64453125,35.46287496,10.56910569,50.00590374,35.80492977,158.8195671,4.435689949,87.04129721,348.8750409,120.3311591,10,43,50,1,10_43_50_1,43-50-1
165,PS-10_043_50_06_02_14_26_37_2.csv,61.96303983,28.39259522,9.448818898,75.2440527,53.87230226,881.1983279,16.35716854,1675.52511,2289.767331,120.8327714,10,43,50,2,10_43_50_2,43-50-2
166,PS-10_043_50_06_02_14_26_37_3.csv,64.30849983,33.44687195,8.59375,64.86791216,99.8344247,444.0588051,4.447952762,109.104435,1023.248316,118.9618834,10,43,50,3,10_43_50_3,43-50-3
167,PS-10_044_47_06_02_16_52_03_0.csv,75.99133552,45.50338929,19.60784314,75.71834471,176.2982369,810.8288213,4.599188487,232.8856185,637.9159999,120.117661,10,44,47,0,10_44_47_0,44-47-0
168,PS-10_044_47_06_02_16_52_03_1.csv,74.71673299,42.97080116,19.33333333,63.61069689,320.9987274,498.4753262,1.552888792,120.6825479,94.89209908,120.1917122,10,44,47,1,10_44_47_1,44-47-1
169,PS-10_044_50_06_02_16_59_44_0.csv,74.41368724,41.11950073,21.47651007,70.45286455,417.2284317,818.5004716,1.961756221,758.468847,266.8080779,120.2844302,10,44,50,0,10_44_50_0,44-50-0
170,PS-10_044_50_06_02_16_59_44_1.csv,74.75524925,41.71757938,18.95424837,62.39291756,180.3972334,705.4262628,3.910405107,448.3974492,1008.91802,120.777874,10,44,50,1,10_44_50_1,44-50-1
171,PS-10_044_50_06_02_16_59_44_2.csv,74.72461778,28.92171683,8.666666667,38.61601273,96.8173844,619.2085536,6.395633981,20.11618495,132.8228123,120.1683276,10,44,50,2,10_44_50_2,44-50-2
172,PS-10_045_47_06_02_17_13_15_0.csv,83.57423503,33.40719732,11.24260355,44.80131744,122.9050445,456.0812385,3.710842305,82.96210409,81.48312909,120.4354621,10,45,47,0,10_45_47_0,45-47-0
173,PS-10_045_47_06_02_17_13_15_1.csv,82.56151286,36.31297411,8.982035928,50.31580098,185.1949294,661.6147847,3.572531855,126.6743491,265.2455396,120.0735833,10,45,47,1,10_45_47_1,45-47-1
174,PS-10_045_50_06_02_17_21_11_0.csv,82.51855588,31.02304176,6.666666667,43.38274324,225.4467291,431.656836,1.914673314,112.8403335,219.9787619,120.5430801,10,45,50,0,10_45_50_0,45-50-0
175,PS-10_045_50_06_02_17_21_11_1.csv,82.92614463,32.75380486,6.626506024,49.20079451,97.35763432,246.3023346,2.529871811,148.9009762,159.5299722,120.435464,10,45,50,1,10_45_50_1,45-50-1
176,PS-10_045_50_06_02_17_21_11_2.csv,85.85453628,37.31046922,12.35294118,47.84413643,280.101716,644.4014043,2.300597845,81.88524327,105.2870754,120.2874699,10,45,50,2,10_45_50_2,45-50-2
177,PS-10_046_47_06_02_19_35_27_0.csv,78.6931776,34.49930549,13.29113924,50.09237009,110.0772012,450.9662292,4.096817727,210.8064435,318.3258317,120.4093666,10,46,47,0,10_46_47_0,46-47-0
178,PS-10_046_47_06_02_19_35_27_1.csv,80.83499492,33.11952796,12.80487805,42.92279467,229.6156641,290.9598774,1.267160403,45.59652484,272.4826845,120.5107634,10,46,47,1,10_46_47_1,46-47-1
179,PS-10_046_50_06_02_19_44_18_0.csv,75.58666957,39.02904336,14.47368421,79.30858382,239.022825,1620.804143,6.780959694,649.3598854,1625.287267,120.4643676,10,46,50,0,10_46_50_0,46-50-0
180,PS-10_047_47_06_02_19_57_19_0.csv,83.28711062,33.43406579,11.30952381,44.62802335,193.9388815,436.7196145,2.251841463,51.45922486,112.5795343,120.6057929,10,47,47,0,10_47_47_0,47-47-0
181,PS-10_047_47_06_02_19_57_19_1.csv,84.29532852,32.28665059,9.467455621,40.46941301,189.8875317,397.4291714,2.092971391,87.73759928,232.7784505,120.373569,10,47,47,1,10_47_47_1,47-47-1
182,PS-10_047_50_06_02_20_05_31_0.csv,81.77747837,35.03330145,16.86746988,45.99216322,262.0752645,291.2067542,1.11115696,213.8536312,355.6587635,120.6630087,10,47,50,0,10_47_50_0,47-50-0
183,PS-10_047_50_06_02_20_05_31_1.csv,82.31863564,40.67335913,20.35928144,51.10683673,316.0859995,345.1243398,1.09186848,195.4543474,48.41785633,120.2642901,10,47,50,1,10_47_50_1,47-50-1
184,PS-10_047_50_06_02_20_05_31_2.csv,81.40456027,37.45825337,19.01840491,47.1207332,147.9237825,516.2385253,3.489895382,197.5266031,210.1358644,120.6902512,10,47,50,2,10_47_50_2,47-50-2
185,PS-10_048_47_06_13_11_00_08_0.csv,63.59792977,35.85857627,10.07751938,77.41025521,92.65629047,1239.158663,13.37371329,192.2114361,787.6026505,120.2295071,10,48,47,0,10_48_47_0,48-47-0
186,PS-10_048_47_06_13_11_00_08_1.csv,61.5234375,40.4066611,12.06896552,82.09145954,256.5914647,1814.027622,7.069711473,1039.252955,2669.24037,121.0198007,10,48,47,1,10_48_47_1,48-47-1
187,PS-10_048_47_06_13_11_00_08_2.csv,64.57834511,46.73612288,10.76923077,66.29482257,88.55356124,1002.272485,11.31826288,311.3518495,963.5045345,120.3561019,10,48,47,2,10_48_47_2,48-47-2
188,PS-10_048_50_06_13_11_08_26_0.csv,60.98714886,23.44226781,3.25203252,44.63990649,150.6958203,582.4558993,3.86510985,423.129142,374.4921198,120.7121347,10,48,50,0,10_48_50_0,48-50-0
189,PS-10_048_50_06_13_11_08_26_1.csv,60.40987237,15.10892258,0,32.7260862,21.39092222,226.5654461,10.59166331,31.49446554,418.774605,120.8643367,10,48,50,1,10_48_50_1,48-50-1
190,PS-10_048_50_06_13_11_08_26_2.csv,59.89214173,20.3155769,2.5,31.62157255,87.22958722,408.8727642,4.687317425,54.77913791,56.44180031,120.1863668,10,48,50,2,10_48_50_2,48-50-2
191,PS-10_048_50_06_13_11_08_26_3.csv,60.18974505,19.3498832,2.5,58.42443587,15.25521992,212.8173507,13.95046101,583.1408904,1310.507388,120.0495962,10,48,50,3,10_48_50_3,48-50-3
192,PS-10_048_50_06_13_11_08_26_4.csv,60.18982029,22.75892071,3.225806452,70.46593056,80.38096897,414.1878521,5.152809893,223.0287403,1334.400842,120.9316976,10,48,50,4,10_48_50_4,48-50-4
193,PS-10_049_47_06_13_10_50_43_0.csv,83.6250227,40.02644776,15.88235294,56.01523238,259.0106141,419.5588872,1.6198521,208.6309193,212.3220071,120.2498511,10,49,47,0,10_49_47_0,49-47-0
194,PS-10_049_47_06_13_10_50_43_1.csv,87.7226376,40.091322,16,52.9658943,295.9187889,671.8309571,2.270322069,426.8071733,35.49512874,120.7084084,10,49,47,1,10_49_47_1,49-47-1
195,PS-10_049_50_06_13_10_58_52_0.csv,82.66588452,45.015412,23.35329341,66.54963236,299.7875043,1236.193721,4.123566537,451.6108027,92.1596631,120.530886,10,49,50,0,10_49_50_0,49-50-0
196,PS-10_049_50_06_13_10_58_52_1.csv,83.05282596,36.50113853,19.64285714,48.87285176,231.0548426,561.8017018,2.431464736,158.3481119,269.4968594,120.3229909,10,49,50,1,10_49_50_1,49-50-1
197,PS-10_050_47_06_13_13_24_52_0.csv,71.01708048,47.58164311,24.82269504,75.32422656,296.8585828,549.4756749,1.85096779,851.0688454,1336.347511,120.3222781,10,50,47,0,10_50_47_0,50-47-0
198,PS-10_050_47_06_13_13_24_52_1.csv,74.65732266,41.4448152,19.59459459,70.51710807,311.5689895,736.5782498,2.364093586,154.5508966,2172.114109,120.0924313,10,50,47,1,10_50_47_1,50-47-1
199,PS-10_050_50_06_13_13_32_54_0.csv,77.28132669,34.02676583,12.90322581,51.63281,112.6376256,237.6197779,2.109595054,69.41162208,507.3590202,120.0664534,10,50,50,0,10_50_50_0,50-50-0
200,PS-10_050_50_06_13_13_32_54_1.csv,74.16758476,33.76882195,9.333333333,44.7476313,200.5098317,676.8908474,3.375848665,172.4879058,204.7937212,120.4037421,10,50,50,1,10_50_50_1,50-50-1
201,PS-10_050_50_06_13_13_32_54_2.csv,62.71975945,52.5740227,30.15873016,73.54420455,289.0724811,1059.270514,3.664376872,1296.800261,388.8926719,120.7932118,10,50,50,2,10_50_50_2,50-50-2
202,PS-10_050_50_06_13_13_32_54_3.csv,66.56247338,47.93541001,15.44117647,98.62464984,360.876237,2325.123215,6.442993406,846.1510394,2009.023089,120.5269964,10,50,50,3,10_50_50_3,50-50-3
203,PS-10_051_47_06_13_13_28_04_0.csv,80.20293947,45.27465276,18.63354037,72.19177156,381.5776357,597.9691152,1.567096861,545.5534911,687.1500529,120.049123,10,51,47,0,10_51_47_0,51-47-0
204,PS-10_051_47_06_13_13_28_04_1.csv,79.09522378,41.44166145,20.51282051,67.41503257,333.291182,712.77256,2.138588113,424.0953588,2389.024767,120.2200324,10,51,47,1,10_51_47_1,51-47-1
205,PS-10_051_50_06_13_13_36_01_0.csv,77.54370582,43.48500083,20.88607595,64.00472446,299.0685594,680.4772698,2.27532199,573.4859566,618.3402602,120.3901739,10,51,50,0,10_51_50_0,51-50-0
206,PS-10_051_50_06_13_13_36_01_1.csv,78.22095687,47.35062763,24.52830189,68.58208081,389.2924007,865.3620218,2.222910132,431.3645522,530.7962216,120.148484,10,51,50,1,10_51_50_1,51-50-1
207,PS-10_051_50_06_13_13_36_01_2.csv,82.40417987,45.2385027,20.48192771,64.51258214,257.989397,1191.667473,4.619056004,1023.641007,33.16442252,120.4027121,10,51,50,2,10_51_50_2,51-50-2
208,PS-10_052_47_06_11_11_16_24_0.csv,71.37534569,35.40701827,12.5,44.50256117,181.3043835,322.0927139,1.776530207,239.3431796,246.7056739,120.3443053,10,52,47,0,10_52_47_0,52-47-0
209,PS-10_052_47_06_11_11_16_24_1.csv,73.57281508,48.56837359,21.91780822,67.97063687,267.3758239,945.3053683,3.535493054,320.4308821,387.9730827,120.670859,10,52,47,1,10_52_47_1,52-47-1
210,PS-10_053_47_06_13_16_32_07_0.csv,77.72399615,44.80966472,16.56050955,59.88001115,608.1729392,993.2911957,1.633238067,127.3729633,207.1799719,120.3380076,10,53,47,0,10_53_47_0,53-47-0
211,PS-10_053_47_06_13_16_32_07_1.csv,77.93893445,42.08384026,19.10828025,55.22071225,340.2484332,984.7807763,2.894299224,579.4990373,311.2592081,120.4886794,10,53,47,1,10_53_47_1,53-47-1
212,PS-10_053_50_06_13_16_40_20_0.csv,75.82103343,42.40284785,20.26143791,61.90643262,388.1693971,1089.662263,2.807182305,272.0428889,467.8625593,120.3065608,10,53,50,0,10_53_50_0,53-50-0
213,PS-10_053_50_06_13_16_40_20_1.csv,76.46687425,37.84300777,16.99346405,45.05776724,269.6834017,296.7728714,1.100449155,276.0738927,22.74523968,120.2600189,10,53,50,1,10_53_50_1,53-50-1
214,PS-10_053_50_06_13_16_40_20_2.csv,76.69565256,40.82140177,16.77419355,48.7260848,242.1722503,595.4660647,2.458853416,84.14314341,148.2453384,120.2994679,10,53,50,2,10_53_50_2,53-50-2
215,PS-10_054_50_06_13_19_56_31_0.csv,78.55522,58.8954116,33.12101911,83.40295579,877.7811126,1061.296569,1.209067448,1374.152168,735.7027572,120.0986338,10,54,50,0,10_54_50_0,54-50-0
216,PS-10_054_50_06_13_19_56_31_1.csv,76.64672231,50.94624378,29.48717949,103.1035804,593.1743067,1609.740696,2.713773468,2224.592651,926.5042106,120.3820685,10,54,50,1,10_54_50_1,54-50-1
217,PS-10_054_50_06_13_19_56_31_2.csv,71.60886887,44.58730941,16.89189189,71.74314103,242.2659656,506.1627057,2.089285238,194.0720254,688.568761,120.5096469,10,54,50,2,10_54_50_2,54-50-2
218,PS-10_055_47_06_18_18_04_26_0.csv,66.92233132,51.48887201,29.71014493,111.0431473,290.4868682,2584.855082,8.898354333,1761.594377,1662.871783,120.8132612,10,55,47,0,10_55_47_0,55-47-0
219,PS-10_055_47_06_18_18_04_26_1.csv,71.29056904,54.07703644,24.64788732,97.5942976,331.9847186,1199.023174,3.611681824,793.0830059,1285.205005,121.0383207,10,55,47,1,10_55_47_1,55-47-1
220,PS-10_055_50_06_18_18_11_42_0.csv,72.27761027,48.05431922,23.61111111,81.56954098,446.1089875,1262.34635,2.829681503,1073.228522,348.7223347,120.6188098,10,55,50,0,10_55_50_0,55-50-0
221,PS-10_055_50_06_18_18_11_42_1.csv,73.60878955,45.12299942,25.5033557,59.42149049,518.9989516,703.5294639,1.355550838,446.5134982,242.7703142,120.4842592,10,55,50,1,10_55_50_1,55-50-1
222,PS-10_055_50_06_18_18_11_42_2.csv,71.99858915,56.75240398,29.86111111,80.48523721,495.5124376,2209.463367,4.458946333,653.3887847,888.5528265,120.8318436,10,55,50,2,10_55_50_2,55-50-2
223,PS-10_056_47_06_14_10_49_44_0.csv,77.5622878,41.85422579,19.62025316,64.22147933,239.3973361,965.663864,4.033728527,272.0996429,601.6312785,120.3039289,10,56,47,0,10_56_47_0,56-47-0
224,PS-10_056_47_06_14_10_49_44_1.csv,75.6021117,43.24879244,19.35483871,67.48950968,290.4318391,998.2531464,3.437133991,702.6093417,1054.360299,120.5345656,10,56,47,1,10_56_47_1,56-47-1
225,PS-10_056_50_06_14_10_57_41_0.csv,75.9557935,46.68945775,22.87581699,72.75298356,269.1283411,1212.665144,4.505899077,364.3074419,260.74815,120.1149925,10,56,50,0,10_56_50_0,56-50-0
226,PS-10_057_47_06_14_11_29_22_0.csv,74.22050327,31.34693492,12.75167785,50.20259583,195.6042583,485.6672999,2.482907602,152.5679379,300.5106194,120.1164569,10,57,47,0,10_57_47_0,57-47-0
227,PS-10_057_47_06_14_11_29_22_1.csv,75.2201563,31.32256019,11.25827815,39.88297735,192.9863297,458.634729,2.376514077,87.6228657,70.878501,120.1056629,10,57,47,1,10_57_47_1,57-47-1
228,PS-10_057_50_06_14_11_37_38_0.csv,69.43359375,34.51859321,14.08450704,64.24147689,127.4236991,1117.660364,8.771212668,506.399325,577.4943791,120.6076081,10,57,50,0,10_57_50_0,57-50-0
229,PS-10_057_50_06_14_11_37_38_1.csv,72.04804127,32.27659758,11.72413793,47.61274749,171.1098802,572.1635896,3.34383724,335.1207822,101.472668,120.6666999,10,57,50,1,10_57_50_1,57-50-1
230,PS-10_057_50_06_14_11_37_38_2.csv,73.34710484,41.68639257,17.68707483,64.82277457,430.9343003,1195.985284,2.775330911,75.56262389,487.5070711,120.2128022,10,57,50,2,10_57_50_2,57-50-2
231,PS-10_058_47_06_14_13_54_41_0.csv,73.17971676,50.4876102,23.64864865,66.94813577,543.9747208,904.1255294,1.662072694,164.8880939,710.3197093,120.5674652,10,58,47,0,10_58_47_0,58-47-0
232,PS-10_058_47_06_14_13_54_41_1.csv,71.62124957,48.28455238,29.16666667,69.52474116,410.5486202,899.2917457,2.190463447,291.1618426,574.8298647,120.4407858,10,58,47,1,10_58_47_1,58-47-1
233,PS-10_058_50_06_14_14_02_54_0.csv,71.20895301,52.01821979,27.08333333,78.95034304,502.0060618,1719.562269,3.425381485,834.9404497,353.8973048,120.6663156,10,58,50,0,10_58_50_0,58-50-0
234,PS-10_058_50_06_14_14_02_54_1.csv,74.04674454,42.02952319,16.10738255,69.07712226,460.3695996,437.1614185,0.949587937,1740.676674,570.1770549,120.4288934,10,58,50,1,10_58_50_1,58-50-1
235,PS-10_058_50_06_14_14_02_54_2.csv,72.0703125,37.15132407,14.09395973,68.38713034,220.5529355,809.3411285,3.669600347,460.7389752,325.0194753,120.5166179,10,58,50,2,10_58_50_2,58-50-2
236,PS-10_059_50_06_14_13_50_44_0.csv,78.73570811,30.56876697,8.75,43.35742072,276.6863233,521.8551859,1.88608956,135.9466623,216.0991442,120.1023951,10,59,50,0,10_59_50_0,59-50-0
237,PS-10_059_50_06_14_13_50_44_1.csv,78.41187482,33.42628002,14.375,49.75370327,163.2603049,639.7482564,3.918578107,167.5753316,202.8655668,120.7161901,10,59,50,1,10_59_50_1,59-50-1
238,PS-10_060_47_06_14_16_38_14_0.csv,73.828125,36.2163388,13.42281879,53.83721837,152.2744134,536.3343612,3.522156803,213.9180191,417.7556794,120.8067795,10,60,47,0,10_60_47_0,60-47-0
239,PS-10_060_47_06_14_16_38_14_1.csv,72.09690071,39.09989266,11.80555556,38.55399705,270.9309996,312.0089493,1.151617754,118.1273359,84.62470479,120.642286,10,60,47,1,10_60_47_1,60-47-1
240,PS-10_060_50_06_14_16_46_24_0.csv,73.85348518,48.35401275,18.79194631,62.96866884,219.5910016,638.3162861,2.906841726,577.3911031,267.4208558,120.0155421,10,60,50,0,10_60_50_0,60-50-0
241,PS-10_061_47_06_14_16_52_18_0.csv,72.89254846,45.35829528,22.2972973,65.77264994,351.9682198,1065.080055,3.02606882,388.7632183,606.72963,120.6753191,10,61,47,0,10_61_47_0,61-47-0
242,PS-10_061_47_06_14_16_52_18_1.csv,69.23556552,61.22483182,37.85714286,102.4365929,498.6422536,3599.343453,7.218288115,2008.41652,756.516307,120.2443451,10,61,47,1,10_61_47_1,61-47-1
243,PS-10_061_50_06_14_17_00_29_0.csv,73.83300759,57.54236901,30.1369863,101.1551304,569.9497742,2296.548135,4.029386867,1075.333215,443.3342891,120.6223638,10,61,50,0,10_61_50_0,61-50-0
244,PS-10_061_50_06_14_17_00_29_1.csv,68.5546875,62.53395267,37.68115942,98.76313233,604.2257754,2393.796656,3.96175859,2818.549579,1324.579693,120.6791109,10,61,50,1,10_61_50_1,61-50-1
245,PS-10_061_50_06_14_17_00_29_2.csv,72.63932001,53.77672917,27.21088435,105.9658493,415.4209519,1514.193208,3.644961095,1852.781792,1338.678024,120.4265717,10,61,50,2,10_61_50_2,61-50-2
246,PS-10_061_50_06_14_17_00_29_3.csv,71.21086486,63.81012121,35.91549296,88.69136452,548.6827302,1205.638767,2.197333177,1640.558994,1111.872819,120.1514172,10,61,50,3,10_61_50_3,61-50-3
247,PS-10_062_47_06_14_19_25_26_0.csv,69.42745612,60.20288307,31.42857143,95.31446813,614.8941154,1537.578079,2.500557479,178.5872823,2105.385441,120.6937058,10,62,47,0,10_62_47_0,62-47-0
248,PS-10_062_47_06_14_19_25_26_1.csv,67.34754764,63.09420307,35.55555556,109.2165443,561.8736325,1652.570102,2.941177528,1131.098347,4092.750608,120.7742971,10,62,47,1,10_62_47_1,62-47-1
249,PS-10_062_50_06_14_19_33_46_0.csv,73.71204654,52.58271504,28.57142857,73.83388243,427.0156367,1531.005026,3.585360569,244.1217512,172.7844307,120.4383539,10,62,50,0,10_62_50_0,62-50-0
250,PS-10_062_50_06_14_19_33_46_1.csv,72.50976563,57.3646901,28.96551724,74.28771467,613.1902527,1001.391198,1.633084013,1437.830031,314.6006491,120.7104227,10,62,50,1,10_62_50_1,62-50-1
251,PS-10_063_47_06_14_19_40_50_0.csv,77.37033266,47.96987007,29.67741935,71.1672932,421.7722945,903.6510447,2.142509256,728.7413021,780.985961,120.4605697,10,63,47,0,10_63_47_0,63-47-0
252,PS-10_063_47_06_14_19_40_50_1.csv,80.89736606,46.59010435,19.375,71.36184944,353.4877061,845.3350533,2.39141288,247.8881051,864.517304,120.0296605,10,63,47,1,10_63_47_1,63-47-1
253,PS-10_063_50_06_14_19_48_43_0.csv,76.1512917,45.81351808,31.78807947,108.9387078,366.5949824,1919.243284,5.235323383,738.7166876,2571.04333,120.4703528,10,63,50,0,10_63_50_0,63-50-0
254,PS-10_063_50_06_14_19_48_43_1.csv,77.6971187,40.59351311,18.35443038,61.26615918,255.0783313,876.3487014,3.435606218,351.1828889,581.2963825,120.7914141,10,63,50,1,10_63_50_1,63-50-1
255,PS-10_063_50_06_14_19_48_43_2.csv,77.34668132,45.16374907,18.70967742,66.85585808,468.6074288,652.4706725,1.392360924,1266.5843,319.8286289,120.4054213,10,63,50,2,10_63_50_2,63-50-2
256,PS-10_064_47_06_15_10_24_15_0.csv,69.11515444,48.26936929,20.42253521,74.88969129,390.849536,975.1394992,2.494923006,412.0853556,1080.735511,120.5928491,10,64,47,0,10_64_47_0,64-47-0
257,PS-10_064_47_06_15_10_24_15_1.csv,71.29342329,46.11054728,12.23021583,62.43027932,739.5270149,1950.563855,2.637582963,321.6464332,406.9738551,120.5927166,10,64,47,1,10_64_47_1,64-47-1
258,PS-10_066_50_06_15_13_33_38_0.csv,83.14581697,38.9596945,18.07228916,45.7999628,254.8260777,502.0445108,1.970145738,57.2029476,42.70681715,120.3260501,10,66,50,0,10_66_50_0,66-50-0
259,PS-10_066_50_06_15_13_33_38_1.csv,83.86194826,30.81454351,11.83431953,43.92112967,146.2818411,667.6515929,4.564145404,145.5628819,145.6703263,120.692738,10,66,50,1,10_66_50_1,66-50-1
260,PS-10_067_47_06_15_16_35_22_0.csv,81.71170289,48.00257915,31.13772455,70.53355648,535.7225721,841.5930054,1.570949311,126.7404297,1610.151299,120.39905,10,67,47,0,10_67_47_0,67-47-0
261,PS-10_067_47_06_15_16_35_22_1.csv,81.97703347,46.91307776,21.68674699,69.13813379,310.8020617,882.5714484,2.839657638,254.7409817,667.8203749,120.6396626,10,67,47,1,10_67_47_1,67-47-1
262,PS-10_067_50_06_15_16_43_47_0.csv,79.37144535,49.63559696,25,81.47471413,437.83583,1220.308394,2.787136892,294.9138372,471.6040154,120.2663291,10,67,50,0,10_67_50_0,67-50-0
263,PS-10_067_50_06_15_16_43_47_1.csv,80.41992188,49.04629457,27.27272727,65.28087048,609.4049943,709.5356532,1.164308891,204.1409007,459.1235008,120.0744169,10,67,50,1,10_67_50_1,67-50-1
264,PS-10_067_50_06_15_16_43_47_2.csv,81.29160018,40.35005478,23.31288344,63.68933277,403.3234694,776.034966,1.924100691,337.5167122,704.0042927,120.0328871,10,67,50,2,10_67_50_2,67-50-2
265,PS-10_068_47_06_15_16_42_41_0.csv,69.74072229,51.92173211,22.85714286,76.51137014,370.246143,2814.021469,7.600407248,1049.130363,404.3605545,120.7551276,10,68,47,0,10_68_47_0,68-47-0
266,PS-10_068_47_06_15_16_42_41_1.csv,70.29553617,44.05988297,21.12676056,65.79978961,168.2218485,2249.248044,13.37072481,247.529319,766.094194,120.2955127,10,68,47,1,10_68_47_1,68-47-1
267,PS-10_068_50_06_15_16_51_30_0.csv,71.74762292,40.95550636,15.97222222,70.53881186,201.1897258,1362.333612,6.771387588,273.5084041,402.0865331,120.4313915,10,68,50,0,10_68_50_0,68-50-0
268,PS-10_068_50_06_15_16_51_30_1.csv,72.04560388,36.76193457,13.01369863,54.54474118,218.3594289,573.8605227,2.628054697,221.2732625,334.892385,120.8529343,10,68,50,1,10_68_50_1,68-50-1
269,PS-10_068_50_06_15_16_51_30_2.csv,72.94921875,33.09828853,14.28571429,54.13422305,254.3391387,356.0341416,1.399840164,370.0784765,188.5007391,120.007859,10,68,50,2,10_68_50_2,68-50-2
270,PS-10_069_47_06_19_19_48_23_0.csv,70.80034073,29.91167532,9.154929577,49.85590402,128.430206,650.076671,5.061711659,107.5484729,509.6747718,120.0175107,10,69,47,0,10_69_47_0,69-47-0
271,PS-10_069_47_06_19_19_48_23_1.csv,72.94921875,31.39878694,10.81081081,39.45545554,223.8505548,186.9868674,0.835320098,120.7336113,88.12407022,120.831408,10,69,47,1,10_69_47_1,69-47-1
272,PS-10_069_50_06_19_19_56_16_0.csv,71.5607587,40.67887222,21.76870748,54.96005813,222.7453196,915.3253989,4.109291277,278.996971,499.2076101,120.6500363,10,69,50,0,10_69_50_0,69-50-0
273,PS-10_069_50_06_19_19_56_16_1.csv,71.500187,50.59079832,24.30555556,62.75552042,391.4626056,730.9321605,1.867182586,323.5799927,154.529577,120.2761525,10,69,50,1,10_69_50_1,69-50-1
274,PS-10_069_50_06_19_19_56_16_2.csv,72.94921875,45.13426945,14.09395973,59.42444355,211.8780125,631.5774607,2.980854187,608.457209,533.6929317,120.3476084,10,69,50,2,10_69_50_2,69-50-2
275,PS-10_070_47_06_26_20_13_46_0.csv,82.60817057,21.46111753,6.097560976,43.56104602,90.43657204,481.7182436,5.32658672,149.3995316,202.9599438,120.285503,10,70,47,0,10_70_47_0,70-47-0
276,PS-10_070_47_06_26_20_13_46_1.csv,81.27987046,10.79685877,0.613496933,16.48997801,16.05613309,34.89363028,2.17322752,9.218281549,20.1272048,120.3481653,10,70,47,1,10_70_47_1,70-47-1
277,PS-10_070_50_06_26_20_21_32_0.csv,80.96200121,22.09571159,3.067484663,35.24606302,39.93637702,108.153398,2.708142452,104.5725461,181.3410763,120.7240796,10,70,50,0,10_70_50_0,70-50-0
278,PS-10_070_50_06_26_20_21_32_1.csv,80.15094153,21.80264749,3.726708075,31.89899103,106.0849374,247.0508236,2.328802086,88.08202114,162.0489042,120.4153613,10,70,50,1,10_70_50_1,70-50-1
279,PS-10_070_50_06_26_20_21_32_2.csv,79.36095999,15.09738195,1.875,31.17126863,24.59354727,111.9079466,4.550297089,4.718253335,149.0312083,120.1610712,10,70,50,2,10_70_50_2,70-50-2
280,PS-10_072_47_06_09_17_17_38_0.csv,80.19542197,45.91202593,20.98765432,76.40944758,284.0952932,1242.737891,4.374369871,1544.239484,1299.526481,120.7307958,10,72,47,0,10_72_47_0,72-47-0
281,PS-10_072_47_06_09_17_17_38_1.csv,81.73828125,50.5768664,24.8447205,100.547894,679.4518952,2454.784951,3.61288999,3718.813541,5897.85086,120.3660443,10,72,47,1,10_72_47_1,72-47-1
282,PS-10_073_47_06_16_11_13_48_0.csv,78.0390376,45.95792539,19.10828025,65.43085476,387.2964759,691.461425,1.785354291,84.14162648,1215.448941,120.2889358,10,73,47,0,10_73_47_0,73-47-0
283,PS-10_073_47_06_16_11_13_48_1.csv,77.36401254,45.96107961,21.79487179,65.66492482,399.4796713,587.3809931,1.470365166,675.0784548,63.75086768,120.6286518,10,73,47,1,10_73_47_1,73-47-1
284,PS-10_073_50_06_16_11_21_40_0.csv,74.36650895,60.38604647,28.66666667,80.96458475,706.6233236,1525.745153,2.159205764,674.6304298,813.3266606,120.4018598,10,73,50,0,10_73_50_0,73-50-0
285,PS-10_073_50_06_16_11_21_40_1.csv,78.04064861,47.3359669,24.6835443,73.16999342,285.8661598,1326.406879,4.639957662,723.6864804,786.2488283,120.3888749,10,73,50,1,10_73_50_1,73-50-1
286,PS-10_073_50_06_16_11_21_40_2.csv,77.07281831,44.44652227,28.48101266,58.78501181,468.8839355,1004.283393,2.141859247,117.140851,258.1552834,120.6533176,10,73,50,2,10_73_50_2,73-50-2
287,PS-10_074_47_06_16_19_27_31_0.csv,71.19140625,27.44535089,8.391608392,55.91999798,91.500567,333.5716308,3.645569003,260.3046805,176.2141315,120.48678,10,74,47,0,10_74_47_0,74-47-0
288,PS-10_074_47_06_16_19_27_31_1.csv,71.19140625,32.92995567,13.38028169,44.92118698,234.7637656,368.3727968,1.569121179,157.3367904,126.5712643,120.2077618,10,74,47,1,10_74_47_1,74-47-1
289,PS-10_074_50_06_16_19_35_48_0.csv,69.43359375,36.11779207,13.66906475,65.71442441,101.662929,712.695181,7.010374265,187.2182144,344.1185067,120.2758596,10,74,50,0,10_74_50_0,74-50-0
290,PS-10_074_50_06_16_19_35_48_1.csv,72.50014946,37.6172509,15.86206897,49.70251452,231.2063688,648.9295329,2.806711321,63.56760363,298.5198668,120.1434114,10,74,50,1,10_74_50_1,74-50-1
291,PS-10_074_50_06_16_19_35_48_2.csv,73.21891138,27.50687445,8.163265306,32.33602045,187.1002657,137.044392,0.732464978,87.11535125,98.98815396,120.6281981,10,74,50,2,10_74_50_2,74-50-2
292,PS-10_075_47_06_16_13_59_31_0.csv,78.82462093,50.50173547,24.6835443,70.47034243,475.1030967,1515.995111,3.190876089,447.1665034,210.9270176,120.0186988,10,75,47,0,10_75_47_0,75-47-0
293,PS-10_075_47_06_16_13_59_31_1.csv,79.40525653,43.98307897,22.36024845,59.46748188,221.8607463,1490.924451,6.720091209,96.70278876,40.71637034,120.3403126,10,75,47,1,10_75_47_1,75-47-1
294,PS-10_075_50_06_16_14_07_30_0.csv,79.807845,44.03427122,21.60493827,63.76691735,283.1184557,2058.305817,7.270122363,281.0970563,165.8123778,120.4243004,10,75,50,0,10_75_50_0,75-50-0
295,PS-10_075_50_06_16_14_07_30_1.csv,80.14808626,62.97695413,33.95061728,86.45021473,622.9655079,789.8351984,1.267863451,421.5405229,1094.320554,120.2273049,10,75,50,1,10_75_50_1,75-50-1
296,PS-10_075_50_06_16_14_07_30_2.csv,77.71799965,52.18597848,29.48717949,67.92973023,551.3773325,1456.119908,2.640877348,294.1542769,293.1714535,120.023653,10,75,50,2,10_75_50_2,75-50-2
297,PS-10_078_50_06_16_19_00_30_0.csv,65.84951252,56.44599075,31.06060606,98.0521657,470.5196069,2362.95655,5.022015057,395.1575248,1762.603123,121.0688543,10,78,50,0,10_78_50_0,78-50-0
298,PS-10_078_50_06_16_19_00_30_1.csv,64.1590663,76.44781448,35.15625,124.9607462,704.0217212,3223.05888,4.578067385,2468.475873,2887.597061,120.5800819,10,78,50,1,10_78_50_1,78-50-1
299,PS-10_078_50_06_16_19_00_30_2.csv,64.35422133,61.47640966,30.76923077,96.66836528,754.1893176,3302.032195,4.378253732,582.8698465,1054.539834,120.2024817,10,78,50,2,10_78_50_2,78-50-2
300,PS-10_079_47_06_19_14_10_37_0.csv,80.71615967,44.91670934,20.49689441,72.91597322,190.979607,816.2872765,4.274211729,258.9706905,1481.660468,120.3978059,10,79,47,0,10_79_47_0,79-47-0
301,PS-10_079_47_06_19_14_10_37_1.csv,76.54239884,46.37824518,23.52941176,73.8705973,336.0713715,883.0968012,2.627706124,1131.567897,376.8764637,120.010485,10,79,47,1,10_79_47_1,79-47-1
302,PS-10_079_50_06_19_14_18_25_0.csv,78.93447437,44.56778529,25,54.9033059,326.4294686,676.8766717,2.073577102,108.6705681,221.2392193,120.4041544,10,79,50,0,10_79_50_0,79-50-0
303,PS-10_079_50_06_19_14_18_25_1.csv,76.90429688,44.25610079,28.20512821,70.36008723,369.0251055,597.1655098,1.618224616,249.2721091,1067.022977,120.4344759,10,79,50,1,10_79_50_1,79-50-1
304,PS-10_080_47_06_17_10_56_47_0.csv,87.45117187,53.87512154,31.81818182,68.16195031,497.6132504,1839.188471,3.696019889,263.8938123,391.5859431,120.3546228,10,80,47,0,10_80_47_0,80-47-0
305,PS-10_080_47_06_17_10_56_47_1.csv,86.48804219,51.60412081,26.47058824,96.17338576,481.8818008,1422.916658,2.952833362,323.3906921,800.8421764,120.1821113,10,80,47,1,10_80_47_1,80-47-1
306,PS-10_080_50_06_17_11_05_10_0.csv,81.85942557,50.73929278,24.24242424,63.39927074,464.7651732,634.6204922,1.365464817,67.56751654,606.5178641,120.6140605,10,80,50,0,10_80_50_0,80-50-0
307,PS-10_081_50_06_17_19_30_13_0.csv,81.234198,52.84666688,29.375,99.31092963,577.6713752,1521.836685,2.634433261,4131.932625,2218.759633,120.2535014,10,81,50,0,10_81_50_0,81-50-0
308,PS-10_081_50_06_17_19_30_13_1.csv,85.79435273,29.71173758,11.69590643,40.29882495,239.5002655,457.4284534,1.909928795,270.8574135,109.9510518,120.1018154,10,81,50,1,10_81_50_1,81-50-1
309,PS-10_082_47_06_17_13_51_57_0.csv,74.58305599,59.90491623,26.35135135,136.2471284,653.5055262,3450.892012,5.280585815,1611.036621,11936.18105,120.2879868,10,82,47,0,10_82_47_0,82-47-0
310,PS-10_082_47_06_17_13_51_57_1.csv,76.74352312,54.84265467,27.56410256,80.65702929,515.987425,2085.40358,4.041578301,1477.958963,446.6265477,120.3656765,10,82,47,1,10_82_47_1,82-47-1
311,PS-10_082_50_06_17_14_00_48_0.csv,72.34657317,58.63129777,23.97260274,95.79613005,598.4284702,1466.257124,2.450179422,478.5948596,1841.280836,120.674127,10,82,50,0,10_82_50_0,82-50-0
312,PS-10_083_47_06_17_14_44_49_0.csv,87.87776844,34.92735965,13.14285714,47.82566557,245.0418143,348.0049247,1.42018588,325.431284,275.4433951,120.4089824,10,83,47,0,10_83_47_0,83-47-0
313,PS-10_083_47_06_17_14_44_49_1.csv,85.80477985,43.96390213,18.60465116,53.18534348,958.9469621,620.7142376,0.64728735,247.2160339,91.17549382,120.076817,10,83,47,1,10_83_47_1,83-47-1
314,PS-10_083_50_06_17_14_53_15_0.csv,85.28059797,36.89250417,11.17647059,52.85056879,123.829499,257.2033747,2.07707676,206.5205509,555.3762243,120.2881393,10,83,50,0,10_83_50_0,83-50-0
315,PS-10_083_50_06_17_14_53_15_1.csv,83.16029167,40.26098349,20.48192771,57.94588919,289.7358951,507.9648222,1.753199485,353.5632652,286.0722134,120.4216852,10,83,50,1,10_83_50_1,83-50-1
316,PS-10_083_50_06_17_14_53_15_2.csv,82.98439278,45.57489652,25.30120482,59.47427067,254.6936759,1132.191211,4.445305549,109.5217157,106.8996762,120.3363657,10,83,50,2,10_83_50_2,83-50-2
317,PS-10_084_47_06_17_16_53_39_0.csv,67.2855877,58.1322654,20.89552239,104.3698257,391.470194,878.3828415,2.24380516,256.5425381,3674.640746,120.0720852,10,84,47,0,10_84_47_0,84-47-0
318,PS-10_084_47_06_17_16_53_39_1.csv,72.66598678,50.03857814,17.85714286,95.28109668,134.7827241,757.845408,5.622719181,278.9941522,2410.546036,120.1412062,10,84,47,1,10_84_47_1,84-47-1
319,PS-10_084_50_06_17_17_01_40_0.csv,74.70703125,34.65271908,13.10344828,43.5102293,323.877692,226.0262391,0.697875293,215.4725628,198.9577507,120.2533257,10,84,50,0,10_84_50_0,84-50-0
320,PS-10_084_50_06_17_17_01_40_1.csv,73.828125,27.47419725,7.432432432,35.96670627,193.2573526,494.1418196,2.556910839,138.9626632,158.3769785,120.4302566,10,84,50,1,10_84_50_1,84-50-1
321,PS-10_084_50_06_17_17_01_40_2.csv,71.91559085,34.68127984,12.5,59.69102151,179.2971381,484.5782943,2.702654931,78.20863014,243.1266066,120.1759589,10,84,50,2,10_84_50_2,84-50-2
322,PS-10_085_47_06_17_17_03_28_0.csv,86.47579084,26.1840162,5.172413793,37.80824966,96.49018093,187.4271207,1.942447604,36.42483641,79.68843382,120.6659346,10,85,47,0,10_85_47_0,85-47-0
323,PS-10_085_50_06_17_17_10_46_0.csv,84.375,20.98583612,4.761904762,25.46656409,84.44826831,158.5073617,1.876975868,25.06447071,16.55462968,120.3292285,10,85,50,0,10_85_50_0,85-50-0
324,PS-10_086_47_06_17_11_05_00_0.csv,79.2169072,50.44342523,26.41509434,73.44665548,615.0508385,2057.434428,3.345145311,262.7056122,225.707879,120.1747359,10,86,47,0,10_86_47_0,86-47-0
325,PS-10_086_47_06_17_11_05_00_1.csv,74.57776034,49.92681758,16.99346405,71.29549157,401.8228137,718.8189384,1.788895289,289.3909612,365.0443461,120.3932268,10,86,47,1,10_86_47_1,86-47-1
326,PS-10_086_50_06_17_11_13_01_0.csv,79.27739411,60.80630038,38.125,76.52750055,698.2181633,1270.651528,1.819848859,316.1796688,577.9359655,120.5629205,10,86,50,0,10_86_50_0,86-50-0
327,PS-10_087_47_06_15_19_45_29_0.csv,62.16338733,59.25202799,25.80645161,110.8662524,411.6442976,4509.549095,10.95496554,729.9411302,2622.287811,120.4001233,10,87,47,0,10_87_47_0,87-47-0
328,PS-10_087_47_06_15_19_45_29_1.csv,68.84650005,61.70467612,22.62773723,97.8166824,975.4827112,1352.422064,1.386413156,2401.543051,1541.948986,120.7522253,10,87,47,1,10_87_47_1,87-47-1
329,PS-10_087_47_06_15_19_45_29_2.csv,69.11634405,61.43070779,27.20588235,103.4930169,642.5743796,3055.677653,4.755368016,1274.868896,895.8752531,120.8407815,10,87,47,2,10_87_47_2,87-47-2
330,PS-10_087_50_06_15_19_53_38_0.csv,70.28905243,51.97807761,18.46153846,106.5788234,424.1621674,1706.193886,4.022503696,526.2708453,5841.515976,120.4509109,10,87,50,0,10_87_50_0,87-50-0
331,PS-10_087_50_06_15_19_53_38_1.csv,71.67100648,55.81522188,24.62686567,114.0460594,601.2208162,2634.914424,4.382606777,3632.409259,3843.004194,120.1069772,10,87,50,1,10_87_50_1,87-50-1
332,PS-10_087_50_06_15_19_53_38_2.csv,72.04488294,48.58432831,25.35211268,87.69415664,360.2231279,2753.512355,7.643907737,430.6189397,2192.684726,120.0506864,10,87,50,2,10_87_50_2,87-50-2
333,PS-10_087_50_06_15_19_53_38_3.csv,68.7228296,47.48103599,23.13432836,96.91064226,262.8352438,1617.789587,6.155147093,2401.03916,3735.236629,120.603527,10,87,50,3,10_87_50_3,87-50-3
334,PS-10_090_50_06_17_13_02_02_0.csv,70.75403973,48.1354261,19.71830986,88.33828666,200.5620252,1467.93983,7.319131469,2398.316763,891.2113587,120.273761,10,90,50,0,10_90_50_0,90-50-0
335,PS-10_090_50_06_17_13_02_02_1.csv,69.47594268,41.92940789,16.42857143,80.70294807,200.946227,957.4891976,4.764902592,852.5052172,1535.820839,120.3374485,10,90,50,1,10_90_50_1,90-50-1
336,PS-10_092_47_06_18_20_04_52_0.csv,69.74250437,43.92123117,21.83098592,76.80858065,624.9184782,1402.818277,2.244802043,204.1184865,1843.344545,120.7824052,10,92,47,0,10_92_47_0,92-47-0
337,PS-10_092_47_06_18_20_04_52_1.csv,69.87118857,47.89479,23.23943662,69.61172114,225.4482379,1247.412796,5.533034133,767.9962237,691.2221685,120.1922819,10,92,47,1,10_92_47_1,92-47-1
338,PS-10_092_47_06_18_20_04_52_2.csv,73.84059198,39.0160009,15.54054054,67.42722798,240.9775335,1267.596133,5.260225359,922.0633492,560.9143412,120.6412678,10,92,47,2,10_92_47_2,92-47-2
339,PS-10_092_50_06_18_20_15_04_0.csv,70.23176369,41.4549979,21.9858156,62.29534164,309.9679837,848.2329642,2.736517991,956.685965,139.6287808,120.1340495,10,92,50,0,10_92_50_0,92-50-0
340,PS-10_092_50_06_18_20_15_04_1.csv,71.63063139,38.84104546,13.19444444,54.65970466,167.1057322,421.8335818,2.524351356,235.5938586,496.4310109,120.0775594,10,92,50,1,10_92_50_1,92-50-1
341,PS-10_092_50_06_18_20_15_04_2.csv,75.30251224,32.99989383,9.210526316,56.09043583,182.7998286,1029.926466,5.634176322,429.3961381,421.9011993,120.5608651,10,92,50,2,10_92_50_2,92-50-2
342,PS-10_093_47_06_18_20_04_07_0.csv,73.62439373,38.879231,20.27027027,67.34043311,241.6391478,1015.18012,4.201223721,1436.32479,128.8287318,120.1597865,10,93,47,0,10_93_47_0,93-47-0
343,PS-10_093_47_06_18_20_04_07_1.csv,74.90058658,39.80404387,15.89403974,61.47612612,244.9749247,766.9677986,3.130801243,367.5277368,421.657613,120.4164976,10,93,47,1,10_93_47_1,93-47-1
344,PS-10_093_50_06_18_20_10_47_0.csv,71.57972593,51.62484172,30.06993007,98.86868353,357.9110688,1576.35275,4.404314054,808.6032511,1311.006301,120.7528441,10,93,50,0,10_93_50_0,93-50-0
345,PS-10_093_50_06_18_20_10_47_1.csv,74.13375854,45.290477,20.13422819,63.42037813,415.867241,922.3713371,2.21794661,242.2551347,178.1717468,120.5020653,10,93,50,1,10_93_50_1,93-50-1
346,PS-10_093_50_06_18_20_10_47_2.csv,70.84280299,47.48214546,27.08333333,85.21579241,749.6151097,1512.621186,2.017863789,743.8945485,567.4517582,120.1929166,10,93,50,2,10_93_50_2,93-50-2
347,PS-10_094_47_06_19_13_17_20_0.csv,75.67468909,42.20936089,17.33333333,76.34895926,256.6956582,631.7886497,2.461236214,288.2166354,1564.008589,120.6530557,10,94,47,0,10_94_47_0,94-47-0
348,PS-10_094_50_06_19_13_23_17_0.csv,75.54416195,33.12643683,12.66666667,67.34029469,189.9922227,493.866356,2.599403012,148.4130122,1351.267704,120.7355549,10,94,50,0,10_94_50_0,94-50-0
349,PS-10_094_50_06_19_13_23_17_1.csv,75.93585511,19.38381415,2.614379085,24.68483526,38.59916745,136.5753736,3.53829843,47.46558188,47.01431971,120.6484486,10,94,50,1,10_94_50_1,94-50-1
350,PS-10_094_50_06_19_13_23_17_2.csv,77.10070175,30.39677623,10.32258065,40.29463938,155.5605339,192.6187274,1.23822362,207.3142932,247.748315,120.5791453,10,94,50,2,10_94_50_2,94-50-2
351,PS-10_094_50_06_19_13_23_17_3.csv,72.96161832,42.14867633,14.58333333,63.52189973,225.8749777,729.4795106,3.229572032,408.002666,351.160756,120.6105764,10,94,50,3,10_94_50_3,94-50-3
352,PS-10_095_47_06_18_13_40_16_0.csv,72.35329153,56.21342822,22.75862069,98.2129481,433.0535191,2226.770529,5.142021553,347.1569226,333.200703,120.2603758,10,95,47,0,10_95_47_0,95-47-0
353,PS-10_095_50_06_18_13_44_46_0.csv,69.43359375,22.73159559,2.127659574,51.46836739,44.38313566,334.2253736,7.530458779,386.4159267,572.6822004,120.2492866,10,95,50,0,10_95_50_0,95-50-0
354,PS-10_095_50_06_18_13_44_46_1.csv,73.05133918,29.86539339,8.843537415,45.96321822,59.96312664,356.797637,5.950284066,392.6292607,127.051651,120.274039,10,95,50,1,10_95_50_1,95-50-1
355,PS-10_096_47_06_19_16_37_27_0.csv,78.24626926,43.36556223,21.79487179,60.39663438,467.8955125,1457.754549,3.115555738,232.222628,68.40420183,120.3387822,10,96,47,0,10_96_47_0,96-47-0
356,PS-10_096_47_06_19_16_37_27_1.csv,76.29930885,50.74022122,36.60130719,68.67532316,566.2638947,1131.003405,1.997307997,324.1030535,306.3658493,120.0180717,10,96,47,1,10_96_47_1,96-47-1
357,PS-10_096_50_06_19_16_45_28_0.csv,79.79310064,38.2708502,15.72327044,54.98022484,192.9326092,1245.623429,6.45626177,154.7848554,146.0003066,120.7404633,10,96,50,0,10_96_50_0,96-50-0
358,PS-10_096_50_06_19_16_45_28_1.csv,80.72240821,39.47048354,20.98765432,51.99260049,421.0988696,369.9264927,0.87847895,331.5369621,393.9915831,120.6248987,10,96,50,1,10_96_50_1,96-50-1
359,PS-10_096_50_06_19_16_45_28_2.csv,81.88307952,34.53157762,14.11042945,55.93324582,175.3352261,722.8461672,4.122652265,256.5115901,471.7631535,120.5536777,10,96,50,2,10_96_50_2,96-50-2
360,PS-10_097_47_06_19_16_49_53_0.csv,78.70283633,28.75590132,10.75949367,39.59688341,156.0938202,383.3863376,2.456127585,238.7509591,53.07888536,120.2736768,10,97,47,0,10_97_47_0,97-47-0
361,PS-10_097_47_06_19_16_49_53_1.csv,79.34971076,33.9024543,13.58024691,44.42118586,179.3209334,338.6200187,1.888346287,116.6399246,62.69640993,120.6138603,10,97,47,1,10_97_47_1,97-47-1
362,PS-10_097_50_06_19_16_57_50_0.csv,76.90429688,41.79431009,17.19745223,77.41848792,317.0999186,577.3799125,1.820813815,682.483225,1679.103169,120.2030066,10,97,50,0,10_97_50_0,97-50-0
363,PS-10_097_50_06_19_16_57_50_1.csv,76.46484375,45.91100134,21.56862745,64.99192113,414.3357724,1839.165788,4.438829351,253.5935356,198.366264,120.5924784,10,97,50,1,10_97_50_1,97-50-1
364,PS-10_097_50_06_19_16_57_50_2.csv,79.62788167,42.03736953,16.56441718,60.20702739,394.7133738,869.7667035,2.203539989,132.9487517,171.0897671,120.5199853,10,97,50,2,10_97_50_2,97-50-2
365,PS-10_098_47_06_19_19_20_35_0.csv,75.16392912,35.8345239,16.66666667,43.56796093,230.9172449,462.0758458,2.001045206,163.6095606,73.85556857,120.2289917,10,98,47,0,10_98_47_0,98-47-0
366,PS-10_098_47_06_19_19_20_35_1.csv,74.53611987,35.8257219,17.33333333,46.04140481,107.5165449,269.3494525,2.505190738,43.60364349,235.2635883,120.1403048,10,98,47,1,10_98_47_1,98-47-1
367,PS-10_098_50_06_19_19_27_14_0.csv,75.19906343,32.95028856,11.9205298,42.01147567,177.3437541,214.8052281,1.211236501,129.7919878,284.1659681,120.6799087,10,98,50,0,10_98_50_0,98-50-0
368,PS-10_098_50_06_19_19_27_14_1.csv,72.76800701,39.54248323,18.49315068,55.02403246,225.5069682,624.7726364,2.770524748,985.375959,254.5088288,120.601308,10,98,50,1,10_98_50_1,98-50-1
369,PS-10_098_50_06_19_19_27_14_2.csv,74.22722348,32.78636464,14.09395973,44.29760526,239.5052045,202.513208,0.845548256,230.5465293,233.5975287,120.2963855,10,98,50,2,10_98_50_2,98-50-2
370,PS-10_099_47_06_26_19_12_05_0.csv,77.65167047,29.27980685,7.692307692,46.04397705,292.4255321,1091.329167,3.73199002,149.2520437,259.4260087,120.6281616,10,99,47,0,10_99_47_0,99-47-0
371,PS-10_099_47_06_26_19_12_05_1.csv,80.42997624,39.51704448,11.84210526,62.43072213,188.0089322,484.3581473,2.576250721,944.5479288,1500.768442,120.6102558,10,99,47,1,10_99_47_1,99-47-1
372,PS-10_099_50_06_26_19_20_15_0.csv,77.34375,22.44397453,5.095541401,38.68695854,179.2417321,487.8141131,2.721543177,60.30510983,514.6773989,120.5285014,10,99,50,0,10_99_50_0,99-50-0
373,PS-10_099_50_06_26_19_20_15_1.csv,78.15588533,18.76532033,1.923076923,26.32373048,122.8210201,252.4822745,2.0556927,15.11707785,80.53493504,120.161418,10,99,50,1,10_99_50_1,99-50-1
374,PS-10_099_50_06_26_19_20_15_2.csv,77.40956516,22.48758249,2.580645161,28.11598112,62.84701042,255.8089597,4.070344126,86.95137785,88.73646718,120.1127848,10,99,50,2,10_99_50_2,99-50-2
375,PS-10_101_47_06_15_11_12_15_0.csv,70.27852643,48.53485313,21.27659574,64.48196252,402.5666104,1471.139533,3.654400279,182.8265284,168.9287978,120.4007312,10,101,47,0,10_101_47_0,101-47-0
376,PS-10_101_47_06_15_11_12_15_1.csv,67.44281937,52.25068427,20.14388489,103.0024704,268.7492106,1442.003603,5.365610563,928.6397416,597.9009853,120.7116089,10,101,47,1,10_101_47_1,101-47-1
377,PS-10_101_50_06_15_11_19_38_0.csv,61.78449658,61.71107136,23.80952381,83.20997814,323.2206872,941.5375097,2.912986535,793.7915406,300.506279,120.1433045,10,101,50,0,10_101_50_0,101-50-0
378,PS-10_102_47_06_27_10_37_45_0.csv,83.10127736,38.91294368,21.55688623,57.60963076,286.4677245,1046.812333,3.654206891,118.1710965,419.1050499,120.1417048,10,102,47,0,10_102_47_0,102-47-0
379,PS-10_102_50_06_27_10_42_46_0.csv,79.87198762,35.3285221,14.9068323,44.72029377,115.691435,281.9581364,2.437156531,99.64290648,93.61009443,120.535169,10,102,50,0,10_102_50_0,102-50-0
380,PS-10_102_50_06_27_10_42_46_1.csv,80.24788724,48.10769574,23.75,86.6743251,376.3873326,978.0086861,2.598410205,334.6136652,888.2378566,120.1130866,10,102,50,1,10_102_50_1,102-50-1
381,PS-10_103_47_06_27_10_52_21_0.csv,73.47878598,29.58251326,9.459459459,44.06586387,123.5659873,328.1282457,2.655490018,73.04131832,650.5852358,120.0647123,10,103,47,0,10_103_47_0,103-47-0
382,PS-10_103_47_06_27_10_52_21_1.csv,73.35254653,36.57191264,9.459459459,54.61136668,100.4480155,421.2646384,4.193857254,116.8811439,471.3836215,120.0056894,10,103,47,1,10_103_47_1,103-47-1
383,PS-10_103_50_06_27_10_58_55_0.csv,74.28461016,31.8766886,10.73825503,41.75019211,180.0077046,358.0810168,1.989253836,270.915551,75.12806205,120.1235161,10,103,50,0,10_103_50_0,103-50-0
384,PS-10_103_50_06_27_10_58_55_1.csv,72.68759821,22.24534995,2.721088435,45.60959793,68.31245105,280.7259639,4.10944066,227.54899,1035.750477,120.0419661,10,103,50,1,10_103_50_1,103-50-1
385,PS-10_104_47_07_02_13_26_20_0.csv,77.81806504,44.46060705,23.07692308,58.73773712,412.5347371,785.0447151,1.902978451,479.7018736,395.4547348,120.3170341,10,104,47,0,10_104_47_0,104-47-0
386,PS-10_104_50_07_02_13_32_12_0.csv,80.05606297,49.02942082,25.94936709,69.58507751,432.5466584,636.4280968,1.47135132,273.5485686,306.6352084,120.0637962,10,104,50,0,10_104_50_0,104-50-0
387,PS-10_105_47_06_27_13_51_13_0.csv,83.00850845,33.56959375,7.272727273,53.60281128,172.4662806,350.8207732,2.034141236,349.4636564,603.9460821,120.126117,10,105,47,0,10_105_47_0,105-47-0
388,PS-10_105_47_06_27_13_51_13_1.csv,82.99624936,29.12921737,8.982035928,38.19306039,131.2660326,485.9295496,3.701868183,65.80399526,76.84712134,120.5275337,10,105,47,1,10_105_47_1,105-47-1
389,PS-10_105_50_06_27_13_59_26_0.csv,79.1015625,25.67752101,5.625,34.94022055,137.8066017,275.5824429,1.999776785,103.131976,176.0894653,120.5774438,10,105,50,0,10_105_50_0,105-50-0
390,PS-10_105_50_06_27_13_59_26_1.csv,79.538814,28.9989328,8.176100629,40.97819873,319.8885023,1013.959729,3.169728584,144.2060731,95.33356346,120.0296864,10,105,50,1,10_105_50_1,105-50-1
391,PS-10_106_47_06_28_13_58_17_0.csv,75.0664651,47.08623339,23.48993289,82.50367026,686.8867219,1034.187684,1.505616066,1795.962005,852.9308299,120.2803345,10,106,47,0,10_106_47_0,106-47-0
392,PS-10_106_47_06_28_13_58_17_1.csv,76.22526636,43.94409121,21.42857143,70.3801458,270.6957592,979.7146356,3.61924634,780.6094488,1014.242529,120.5517073,10,106,47,1,10_106_47_1,106-47-1
393,PS-10_106_50_06_28_14_06_39_0.csv,77.5981959,41.8112894,19.35483871,53.39580272,261.4268404,132.1619851,0.505540996,75.96223645,958.8848138,120.5410291,10,106,50,0,10_106_50_0,106-50-0
394,PS-10_106_50_06_28_14_06_39_1.csv,76.46484375,50.30544076,22.22222222,67.11370919,208.0030781,1465.79769,7.046999992,191.6014191,143.9564608,120.3854016,10,106,50,1,10_106_50_1,106-50-1
395,PS-10_106_50_06_28_14_06_39_2.csv,73.98254812,42.60673098,20.66666667,67.83049554,300.5438601,498.3001506,1.657994778,879.2047785,451.1934769,120.4458224,10,106,50,2,10_106_50_2,106-50-2
396,PS-10_107_47_06_28_14_14_33_0.csv,81.92723781,50.62670564,25.76687117,65.93777133,375.8780043,1219.876417,3.245405166,1229.260403,863.311232,120.4265703,10,107,47,0,10_107_47_0,107-47-0
397,PS-10_107_47_06_28_14_14_33_1.csv,79.27286662,48.94349133,22.92993631,72.55961163,414.271941,2567.719323,6.198149258,1120.957343,613.7424582,120.08999,10,107,47,1,10_107_47_1,107-47-1
398,PS-10_107_50_06_28_14_22_54_0.csv,80.8990791,42.30582637,15.52795031,54.16940919,418.4763254,773.1240519,1.847473812,263.4513127,184.2004973,120.387976,10,107,50,0,10_107_50_0,107-50-0
399,PS-10_107_50_06_28_14_22_54_1.csv,76.51490504,30.62425885,8.496732026,37.45426348,148.9324559,190.0291156,1.275941597,73.21095804,81.8167204,120.0771558,10,107,50,1,10_107_50_1,107-50-1
400,PS-10_107_50_06_28_14_22_54_2.csv,77.36603483,35.28003311,15.48387097,48.11283469,237.432664,820.8717689,3.457282393,226.1089578,113.9438717,120.1376912,10,107,50,2,10_107_50_2,107-50-2
401,PS-10_108_47_06_28_16_29_15_0.csv,79.05120865,20.09289316,3.125,38.98045488,86.77723124,313.1738018,3.60893978,18.24219615,463.2649673,120.6513947,10,108,47,0,10_108_47_0,108-47-0
402,PS-10_108_47_06_28_16_29_15_1.csv,82.6171875,29.66582508,10.36585366,48.36577061,152.1833595,478.4158302,3.143680307,264.1763448,408.7481539,120.3652362,10,108,47,1,10_108_47_1,108-47-1
403,PS-10_108_50_06_28_16_37_53_0.csv,76.85864729,32.61584824,14.28571429,45.77157103,161.445708,472.311885,2.925515275,71.99373552,136.8740475,120.4278208,10,108,50,0,10_108_50_0,108-50-0
404,PS-10_108_50_06_28_16_37_53_1.csv,78.65810009,29.99578453,8.860759494,41.50305604,207.7325088,321.0741601,1.545613452,71.27780996,328.8716053,120.1267681,10,108,50,1,10_108_50_1,108-50-1
405,PS-10_109_47_06_28_17_40_17_0.csv,77.1042198,35.73163502,14.83870968,46.82250071,197.4247967,632.5636898,3.204074161,90.17104163,273.8296509,120.7959569,10,109,47,0,10_109_47_0,109-47-0
406,PS-10_109_47_06_28_17_40_17_1.csv,72.10562208,39.71353964,16.55172414,75.48618914,416.1280864,1163.663147,2.796406166,202.9108611,2736.508449,120.2508624,10,109,47,1,10_109_47_1,109-47-1
407,PS-10_113_47_06_28_19_17_00_0.csv,77.34375,18.57905035,3.225806452,26.25491502,39.40086765,243.0675104,6.169090301,112.2808731,59.48469839,120.0430203,10,113,47,0,10_113_47_0,113-47-0
408,PS-10_113_47_06_28_19_17_00_1.csv,80.69994584,25.43573281,5.555555556,33.77702616,139.8469863,185.6122156,1.327252167,213.0907618,100.5678908,120.3317207,10,113,47,1,10_113_47_1,113-47-1
409,PS-10_113_50_06_28_19_24_55_0.csv,77.73743121,33.46767452,9.615384615,42.71142874,177.2967832,379.5531085,2.140778314,129.5494718,174.2783641,120.5480352,10,113,50,0,10_113_50_0,113-50-0
410,PS-10_113_50_06_28_19_24_55_1.csv,79.02903552,37.05376308,14.46540881,51.79071211,342.5619348,962.9643677,2.811066467,290.0413161,173.8465813,120.4467428,10,113,50,1,10_113_50_1,113-50-1
411,PS-10_113_50_06_28_19_24_55_2.csv,78.96726182,26.0173128,8.176100629,30.96248988,121.7993892,124.3555816,1.020986906,45.53680631,193.2531037,120.4520834,10,113,50,2,10_113_50_2,113-50-2
412,PS-10_114_47_07_02_15_53_28_0.csv,67.67699301,48.7111008,25.17985612,90.48039883,348.4044817,1954.917659,5.611057727,483.0467789,439.6774603,120.6581207,10,114,47,0,10_114_47_0,114-47-0
413,PS-10_114_47_07_02_15_53_28_1.csv,71.81792695,50.3180858,24.30555556,85.75599288,415.663927,3253.24337,7.826619437,1025.904043,346.8422004,120.9319347,10,114,47,1,10_114_47_1,114-47-1
414,PS-10_114_50_07_02_16_01_48_0.csv,65.99394378,39.61246612,14.17910448,60.99162962,422.6600563,792.3003467,1.874556952,533.6618449,615.1045831,120.870492,10,114,50,0,10_114_50_0,114-50-0
415,PS-10_114_50_07_02_16_01_48_1.csv,69.43359375,52.726148,24.28571429,96.4349163,316.0445031,1649.082053,5.217879244,2148.84254,1625.985899,120.2984823,10,114,50,1,10_114_50_1,114-50-1
416,PS-10_114_50_07_02_16_01_48_2.csv,70.36661999,59.23577147,32.86713287,91.81526042,479.8058412,3226.075436,6.723710216,461.1639433,477.799267,120.2105872,10,114,50,2,10_114_50_2,114-50-2
417,PS-10_114_50_07_02_16_01_48_3.csv,71.98145711,66.17489783,43.15068493,98.67452765,1187.456752,2750.736955,2.316494433,242.8887967,581.8802605,120.1772856,10,114,50,3,10_114_50_3,114-50-3
418,PS-9_001_11_05_21_12_08_37_0.csv,77.31389877,55.4945759,17.44966443,92.01761614,581.317281,2409.009683,4.144053105,2094.714886,3812.940262,120.5861965,9,1,11,0,9_1_11_0,1-11-0
419,PS-9_001_11_05_21_12_08_37_1.csv,78.66293827,39.77448327,14.9068323,51.62086566,302.9460958,466.3529656,1.539392559,281.1275685,396.52619,120.4256242,9,1,11,1,9_1_11_1,2001/11/1
420,PS-9_001_21_05_21_12_23_12_0.csv,73.40499504,43.93972315,20.80536913,58.58291943,434.7698654,1098.633861,2.526931944,73.59077975,394.003227,120.6727106,9,1,21,0,9_1_21_0,1-21-0
421,PS-9_001_21_05_21_12_23_12_1.csv,74.35900383,51.62568835,23.33333333,72.82024662,680.0912837,1339.097338,1.968996472,418.193547,798.3854595,120.303813,9,1,21,1,9_1_21_1,1-21-1
422,PS-9_001_21_05_21_12_23_12_2.csv,75.99090939,48.47499606,28.10457516,80.33847364,310.8180978,2766.94878,8.902148233,818.9826569,782.2939871,120.5646599,9,1,21,2,9_1_21_2,1-21-2
423,PS-9_001_21_05_21_12_23_12_3.csv,75.6352028,37.38523741,14.37908497,51.64147307,316.641569,775.3920965,2.448800702,416.3123632,284.8225276,120.0933359,9,1,21,3,9_1_21_3,1-21-3
424,PS-9_001_21_05_21_12_23_12_4.csv,77.54336333,40.54852244,18.06451613,55.2733499,239.8647815,772.6225506,3.221075415,345.7937075,277.796699,120.6027256,9,1,21,4,9_1_21_4,1-21-4
425,PS-9_001_21_05_21_12_23_12_5.csv,76.90429688,43.08600833,23.22580645,54.86773803,260.1523699,522.9688215,2.010240467,661.0328745,132.9909156,120.2340018,9,1,21,5,9_1_21_5,1-21-5
426,PS-9_001_21_05_21_12_23_12_6.csv,76.36776668,46.24443245,21.93548387,53.82452784,380.1454821,720.3402287,1.89490672,108.7424508,110.137721,120.0600228,9,1,21,6,9_1_21_6,1-21-6
427,PS-9_001_42_05_21_13_30_00_0.csv,69.86355402,42.21570086,23.23943662,59.51231177,316.9027626,1120.424875,3.535547831,167.3593572,461.9216905,120.6664376,9,1,42,0,9_1_42_0,1-42-0
428,PS-9_001_45_05_21_13_35_03_0.csv,71.0022844,45.07147343,25,77.6023565,220.3664335,1137.326139,5.161067957,497.3863773,1066.161406,120.5722489,9,1,45,0,9_1_45_0,1-45-0
429,PS-9_002_11_05_21_12_05_40_0.csv,77.77016801,51.80498114,20.80536913,108.9825502,190.5658036,2052.037517,10.76813089,445.9976028,5060.003646,120.5203669,9,2,11,0,9_2_11_0,2-11-0
430,PS-9_002_11_05_21_12_05_40_1.csv,77.96330107,64.84943566,24.83221477,98.92824773,422.9992655,1726.516258,4.081605806,837.4263857,968.4558894,120.1654924,9,2,11,1,9_2_11_1,2002/11/1
431,PS-9_002_21_05_21_12_19_02_0.csv,78.22264269,42.99680321,14.64968153,68.1442286,324.5623826,1029.38741,3.171616505,421.7366333,666.3673675,120.8265612,9,2,21,0,9_2_21_0,2-21-0
432,PS-9_002_21_05_21_12_19_02_1.csv,74.24929306,47.83065744,20.68965517,97.70426511,258.1198853,1821.368872,7.056290413,671.071158,2060.076171,120.1481192,9,2,21,1,9_2_21_1,2-21-1
433,PS-9_002_42_05_21_13_22_46_0.csv,76.35897503,41.58376577,20.77922078,49.76670414,259.8613578,957.2748696,3.683790763,198.3077664,53.09003805,120.3127324,9,2,42,0,9_2_42_0,2-42-0
434,PS-9_002_45_05_21_13_27_35_0.csv,78.67775185,39.19571798,19.62025316,63.26296412,292.3207434,627.0808721,2.145180889,348.9676571,206.7700689,120.2939652,9,2,45,0,9_2_45_0,2-45-0
435,PS-9_003_21_05_21_15_06_24_0.csv,77.70332395,49.34773641,26.11464968,75.72762139,512.5144032,1609.428019,3.140259101,162.989371,642.1361993,120.884776,9,3,21,0,9_3_21_0,3-21-0
436,PS-9_003_21_05_21_15_06_24_1.csv,80.85073988,41.36429042,22.08588957,71.17019384,247.5466564,1388.076961,5.60733472,593.033108,91.17722879,120.5948525,9,3,21,1,9_3_21_1,3-21-1
437,PS-9_003_21_05_21_15_06_24_2.csv,85.32532185,38.10708453,15.97633136,54.58977869,139.6060501,349.2820035,2.501911653,154.4181645,344.9611936,120.1964001,9,3,21,2,9_3_21_2,3-21-2
438,PS-9_003_21_05_21_15_06_24_3.csv,84.70140574,36.65116799,14.37125749,47.6063749,356.8592963,682.2513672,1.911821758,84.11136425,45.86997432,120.1999847,9,3,21,3,9_3_21_3,3-21-3
439,PS-9_003_21_05_21_15_06_24_4.csv,83.54776175,34.8899777,16.96969697,54.23507632,225.1650193,630.9034567,2.801960352,642.2731021,931.4203468,120.2260746,9,3,21,4,9_3_21_4,3-21-4
440,PS-9_003_42_05_21_16_05_48_0.csv,79.85223557,39.54960281,17.61006289,74.7428271,277.5661355,870.9366303,3.137762569,716.0375466,400.6080846,120.1548211,9,3,42,0,9_3_42_0,3-42-0
441,PS-9_003_45_05_21_16_10_55_0.csv,81.29129022,32.80636142,12.19512195,47.41417686,110.2008458,512.8305402,4.653598949,639.34776,327.5288631,120.6530318,9,3,45,0,9_3_45_0,3-45-0
442,PS-9_004_21_05_21_15_13_29_0.csv,72.19905063,42.90453833,20.94594595,72.9789853,262.680624,1001.550399,3.812806532,690.6925769,684.8675426,120.3902016,9,4,21,0,9_4_21_0,4-21-0
443,PS-9_004_21_05_21_15_13_29_1.csv,77.03686401,40.47376118,22.58064516,72.26842856,169.1040864,847.1186771,5.00945125,74.44495421,781.3188965,120.2525975,9,4,21,1,9_4_21_1,4-21-1
444,PS-9_004_21_05_21_15_13_29_2.csv,77.13155321,51.03681348,28.84615385,56.89645376,344.1374732,484.2933714,1.40726718,144.064388,268.5330616,120.4570253,9,4,21,2,9_4_21_2,4-21-2
445,PS-9_004_21_05_21_15_13_29_3.csv,74.20454478,43.80326045,18.42105263,74.72393089,188.2993523,1088.480376,5.780584812,210.053179,1250.159127,120.2859278,9,4,21,3,9_4_21_3,4-21-3
446,PS-9_004_21_05_21_15_13_29_4.csv,76.01794443,43.75319453,23.37662338,75.19023884,443.7023931,1507.319997,3.397141915,1527.820525,771.4993159,120.624556,9,4,21,4,9_4_21_4,4-21-4
447,PS-9_004_21_05_21_15_13_29_5.csv,79.09499195,47.44633972,25.94936709,63.73475484,466.2664246,1832.830931,3.930866205,289.5658779,308.9663596,120.6959067,9,4,21,5,9_4_21_5,4-21-5
448,PS-9_004_21_05_21_15_13_29_6.csv,77.53310103,42.18789341,18.06451613,62.87704006,335.3680838,913.4134833,2.72361482,242.810021,503.496398,120.1267573,9,4,21,6,9_4_21_6,4-21-6
449,PS-9_004_21_05_21_15_13_29_7.csv,78.13901877,52.85023172,30.12820513,62.25679402,493.3348586,503.307814,1.020215388,668.3869153,80.39812876,120.7020582,9,4,21,7,9_4_21_7,4-21-7
450,PS-9_004_21_05_21_15_13_29_8.csv,76.08601914,49.46270633,20.91503268,81.98348225,282.0193403,636.7524825,2.257832678,1133.36809,799.8474041,120.3923892,9,4,21,8,9_4_21_8,4-21-8
451,PS-9_004_42_05_21_16_28_33_0.csv,74.22062889,57.84535951,35.81081081,86.78023957,412.459817,2288.494448,5.548405818,292.9769644,2916.961548,120.1128768,9,4,42,0,9_4_42_0,4-42-0
452,PS-9_004_45_05_21_16_33_43_0.csv,70.33125056,53.53453205,27.97202797,80.8448438,323.6993001,2234.009175,6.901495229,332.7080714,406.2252898,120.5571183,9,4,45,0,9_4_45_0,4-45-0
453,PS-9_004_45_05_21_16_33_43_1.csv,68.28098333,44.87224881,18.84057971,79.52173367,316.7619395,1160.248175,3.662839597,668.6165258,799.9340522,120.2321458,9,4,45,1,9_4_45_1,4-45-1
454,PS-9_004_45_05_21_16_33_43_2.csv,75.03672253,32.32627151,12.41830065,52.77822791,190.2892363,1071.976025,5.633403368,135.8260849,277.8922365,120.5581277,9,4,45,2,9_4_45_2,4-45-2
455,PS-9_005_11_05_25_12_28_57_0.csv,82.47977705,49.52622702,26.2195122,93.44731067,347.3764046,680.6379249,1.959367176,240.8174468,1217.66191,120.414715,9,5,11,0,9_5_11_0,5-11-0
456,PS-9_005_11_05_25_12_28_57_1.csv,87.45117188,37.79167097,19.31818182,45.9973271,333.9737822,386.544238,1.15740893,154.7347519,140.6283255,120.7005327,9,5,11,1,9_5_11_1,2005/11/1
457,PS-9_005_21_05_25_12_43_49_0.csv,84.81445312,39.67232942,15.88235294,59.03181416,324.7680161,1443.664048,4.445216204,211.7935161,83.81789509,120.3917882,9,5,21,0,9_5_21_0,5-21-0
458,PS-9_005_21_05_25_12_43_49_1.csv,88.30841186,40.37144604,18.88888889,53.18177071,145.3348885,641.5826434,4.414512235,85.44606833,287.9814486,120.2019228,9,5,21,1,9_5_21_1,5-21-1
459,PS-9_005_21_05_25_12_43_49_2.csv,87.43755113,39.93845797,16.47727273,51.8154569,310.8431543,1406.822966,4.525829011,107.0724212,86.5607567,120.2800345,9,5,21,2,9_5_21_2,5-21-2
460,PS-9_005_21_05_25_12_43_49_3.csv,86.78450193,41.36365916,16.57142857,51.94342816,437.84943,494.9312615,1.130368633,239.6656378,258.3406956,120.6050549,9,5,21,3,9_5_21_3,5-21-3
461,PS-9_005_21_05_25_12_43_49_4.csv,86.77709915,38.42676208,18.18181818,54.95523099,302.5264123,472.957668,1.563359921,217.3897752,79.85634528,120.8120403,9,5,21,4,9_5_21_4,5-21-4
462,PS-9_005_21_05_25_12_43_49_5.csv,86.07790375,42.97565423,22.98850575,53.18674899,247.6382864,360.3128528,1.454996552,154.1602724,305.1915568,120.2607637,9,5,21,5,9_5_21_5,5-21-5
463,PS-9_005_21_05_25_12_43_49_6.csv,87.80623875,40.20354736,18.99441341,51.50880739,194.9414152,415.3018072,2.130392901,106.3937078,436.8358026,120.1329142,9,5,21,6,9_5_21_6,5-21-6
464,PS-9_005_21_05_25_12_43_49_7.csv,87.09326511,37.55343124,18.18181818,45.34296233,275.9654366,431.4028745,1.563249659,97.89306166,121.7203961,120.6119033,9,5,21,7,9_5_21_7,5-21-7
465,PS-9_005_42_05_25_14_11_04_0.csv,84.34963093,49.79954646,30.40935673,66.55264801,744.8323476,945.4979965,1.269410492,317.2933715,219.1957683,120.3401655,9,5,42,0,9_5_42_0,5-42-0
466,PS-9_005_45_05_25_14_16_06_0.csv,84.11812401,44.84712141,26.9005848,52.19165239,437.7078671,752.2052331,1.71850974,155.211891,177.1135147,120.7185386,9,5,45,0,9_5_45_0,5-45-0
467,PS-9_006_11_05_25_12_23_59_0.csv,77.02987248,33.68479847,9.615384615,61.17475934,221.5857804,855.5073481,3.860840467,372.4322738,296.4083467,120.8003107,9,6,11,0,9_6_11_0,6-11-0
468,PS-9_006_11_05_25_12_23_59_1.csv,77.47953731,27.3678092,7.692307692,40.17201999,101.5133096,308.1586744,3.035647992,248.644363,205.9668513,120.1100452,9,6,11,1,9_6_11_1,2006/11/1
469,PS-9_006_21_05_25_12_36_48_0.csv,75.10363375,34.47862074,11.9205298,41.78330903,181.5742901,373.9266323,2.059358911,96.86655585,213.6411915,120.3924177,9,6,21,0,9_6_21_0,6-21-0
470,PS-9_006_21_05_25_12_36_48_1.csv,76.02411373,36.91277899,9.74025974,56.85990695,132.0951527,359.0285121,2.717953723,235.611556,213.119219,120.6651526,9,6,21,1,9_6_21_1,6-21-1
471,PS-9_006_21_05_25_12_36_48_2.csv,76.11147741,30.93445385,8.441558442,40.44919039,83.88661847,213.6196453,2.546528269,144.8728463,252.0777648,120.3926438,9,6,21,2,9_6_21_2,6-21-2
472,PS-9_006_21_05_25_12_36_48_3.csv,77.16692281,28.6542972,8.387096774,42.59762461,82.41734203,367.5758735,4.459933606,238.3027363,248.9801501,120.4704039,9,6,21,3,9_6_21_3,6-21-3
473,PS-9_006_42_05_25_13_28_18_0.csv,76.26776935,47.39616946,22.29299363,69.61421555,353.1094571,551.3275114,1.561350171,298.1632956,382.760487,120.8992506,9,6,42,0,9_6_42_0,6-42-0
474,PS-9_006_45_05_25_13_33_03_0.csv,74.20882162,38.73026966,17.21854305,61.06669299,326.607537,1012.094265,3.098808663,515.7639002,222.4850523,120.813576,9,6,45,0,9_6_45_0,6-45-0
475,PS-9_007_11_05_22_14_41_39_0.csv,67.65005191,45.07717904,21.01449275,65.88121447,318.6380352,700.0243425,2.196926497,396.9415145,293.6516162,120.8797335,9,7,11,0,9_7_11_0,7-11-0
476,PS-9_007_11_05_22_14_41_39_1.csv,66.796875,45.61986671,25.73529412,65.04160657,340.0767635,537.2086268,1.579668723,478.2389995,358.7358181,120.5635323,9,7,11,1,9_7_11_1,2007/11/1
477,PS-9_007_21_05_22_14_52_48_0.csv,66.43334698,60.73647192,30.82706767,95.90960942,406.0530523,2434.645201,5.995879571,363.5690279,997.6289256,120.4700094,9,7,21,0,9_7_21_0,7-21-0
478,PS-9_007_21_05_22_14_52_48_1.csv,69.48460359,47.86924372,20.56737589,51.75440133,274.6344059,313.4108744,1.141193047,427.1226666,170.2706413,120.4718479,9,7,21,1,9_7_21_1,7-21-1
479,PS-9_007_21_05_22_14_52_48_2.csv,69.0176866,42.88086345,19.28571429,61.92205788,283.0205127,1100.100495,3.88699916,230.2565865,241.8413413,120.6456488,9,7,21,2,9_7_21_2,7-21-2
480,PS-9_007_21_05_22_14_52_48_3.csv,69.03475853,44.66192583,21.42857143,54.14712284,414.0522897,675.0298664,1.630301011,43.37288976,126.6987863,120.0697064,9,7,21,3,9_7_21_3,7-21-3
481,PS-9_007_21_05_22_14_52_48_4.csv,68.22266302,38.57212322,22.30215827,57.84972755,153.5118705,1377.429034,8.972785163,365.9562705,177.9914181,120.2063866,9,7,21,4,9_7_21_4,7-21-4
482,PS-9_007_42_05_22_15_44_23_0.csv,70.4533871,54.79535455,26.57342657,90.61527533,373.5363672,1314.902053,3.520144673,533.5878811,1270.105107,120.8283123,9,7,42,0,9_7_42_0,7-42-0
483,PS-9_007_45_05_22_15_49_17_0.csv,69.25418621,58.45609999,26.8115942,80.86479752,534.0305117,1660.379289,3.10914686,183.6771536,662.9131048,120.1597964,9,7,45,0,9_7_45_0,7-45-0
484,PS-9_008_11_05_22_14_55_45_0.csv,83.19225051,45.85419774,15.03267974,61.65581059,158.5813195,542.5616052,3.421346265,233.033581,370.0845406,120.0128779,9,8,11,0,9_8_11_0,8-11-0
485,PS-9_008_21_05_22_15_08_02_0.csv,79.12315572,41.53056077,16.02564103,84.76858503,350.9399262,1074.621059,3.062122543,508.4452837,979.7069471,120.649006,9,8,21,0,9_8_21_0,8-21-0
486,PS-9_008_21_05_22_15_08_02_1.csv,82.72278272,41.554053,15.75757576,65.38786148,182.3969261,362.2091385,1.985829182,1337.927315,346.9629622,120.1096437,9,8,21,1,9_8_21_1,8-21-1
487,PS-9_008_21_05_22_15_08_02_2.csv,88.13246416,33.03769736,13.14285714,48.94986772,409.9627115,353.199215,0.861539855,120.0889786,87.87238013,120.4009846,9,8,21,2,9_8_21_2,8-21-2
488,PS-9_008_21_05_22_15_08_02_3.csv,86.33047096,42.13619918,22.22222222,49.5164855,241.5608635,689.2621611,2.85336851,57.71768351,226.9790197,120.0807779,9,8,21,3,9_8_21_3,8-21-3
489,PS-9_008_21_05_22_15_08_02_4.csv,86.64933343,39.41355877,19.88304094,53.35572686,165.3235592,507.2830569,3.068425694,192.5157764,589.1463972,120.3209343,9,8,21,4,9_8_21_4,8-21-4
490,PS-9_008_21_05_22_15_08_02_5.csv,87.64675797,35.91669236,16.27906977,48.43259274,270.7935983,687.0351326,2.537117335,268.7144692,274.5809226,120.0202183,9,8,21,5,9_8_21_5,8-21-5
491,PS-9_008_42_05_22_16_07_08_0.csv,82.52348868,20.87079887,4.21686747,30.75584551,32.23307657,107.7239695,3.342031882,102.5519469,52.17619551,120.0487112,9,8,42,0,9_8_42_0,8-42-0
492,PS-9_008_45_05_22_16_12_30_0.csv,82.87897137,34.44193486,12.04819277,47.72956348,203.2613976,435.7740293,2.143909441,99.71964568,323.8494427,120.2366058,9,8,45,0,9_8_45_0,8-45-0
493,PS-9_009_11_05_24_19_02_38_0.csv,81.05303449,32.01514184,12.80487805,39.67097416,115.4016578,112.558192,0.975360269,128.8606963,192.5265864,120.4111476,9,9,11,0,9_9_11_0,9-11-0
494,PS-9_009_11_05_24_19_02_38_1.csv,78.78933818,47.54069932,18.75,64.22657966,926.7829217,1055.88693,1.139303396,312.2759855,614.761265,120.7220324,9,9,11,1,9_9_11_1,2009/11/1
495,PS-9_009_21_05_24_19_15_09_0.csv,80.41992187,45.47170291,22.64150943,93.88029056,238.3764017,2820.657178,11.83278696,4545.604912,1295.876129,120.0741289,9,9,21,0,9_9_21_0,9-21-0
496,PS-9_009_21_05_24_19_15_09_1.csv,80.65032122,45.69335903,24.22360248,75.83144881,220.796981,1170.145989,5.299646688,472.5769189,377.1879474,120.6137321,9,9,21,1,9_9_21_1,9-21-1
497,PS-9_009_21_05_24_19_15_09_2.csv,80.28184943,42.42007033,20.24539877,48.74721016,287.411816,287.4494823,1.000131053,146.7658959,145.2313388,120.7113326,9,9,21,2,9_9_21_2,9-21-2
498,PS-9_009_21_05_24_19_15_09_3.csv,78.81843561,44.48392605,17.61006289,73.60913677,292.7783217,1832.053829,6.257477735,241.7277987,919.3259395,120.2033492,9,9,21,3,9_9_21_3,9-21-3
499,PS-9_009_21_05_24_19_15_09_4.csv,79.99550597,42.53472191,18.51851852,58.22912042,305.8507282,282.6757692,0.924227877,579.4523915,1041.671722,120.5087439,9,9,21,4,9_9_21_4,9-21-4
500,PS-9_009_21_05_24_19_15_09_5.csv,79.59422744,43.90872302,22.36024845,68.02466502,333.6427375,1287.794495,3.859800769,557.7044931,1082.352005,120.0721226,9,9,21,5,9_9_21_5,9-21-5
501,PS-9_009_42_05_24_20_11_19_0.csv,74.9826017,54.29754821,26.49006623,82.32596978,485.6571043,2103.83001,4.331924709,935.7501623,363.8166677,120.2988733,9,9,42,0,9_9_42_0,9-42-0
502,PS-9_009_45_05_24_20_16_02_0.csv,81.73828125,39.87269033,23.63636364,66.06342794,253.9536858,1073.525342,4.227248519,246.4729629,466.1693901,120.6229008,9,9,45,0,9_9_45_0,9-45-0
503,PS-9_009_45_05_24_20_16_02_1.csv,78.99800047,45.12658271,22.64150943,54.03582428,247.8221126,778.2621514,3.140406412,853.6177784,284.0097111,120.3473354,9,9,45,1,9_9_45_1,9-45-1
504,PS-9_009_45_05_24_20_16_02_2.csv,81.07215296,43.07872169,20.48192771,63.08200457,425.0681758,462.2918069,1.087570967,240.0227754,920.9637306,120.4573826,9,9,45,2,9_9_45_2,9-45-2
505,PS-9_011_11_05_20_10_03_57_0.csv,74.27207651,39.65616264,14.56953642,77.44180319,530.0434872,845.0356557,1.594276085,500.035724,999.6465349,120.2414331,9,11,11,0,9_11_11_0,11-11-0
506,PS-9_011_11_05_20_10_03_57_1.csv,75.67906751,42.75915481,16.88311688,65.12796146,256.4053668,619.5108688,2.416138463,689.5489265,751.6285005,120.2257169,9,11,11,1,9_11_11_1,2011/11/1
507,PS-9_011_21_05_20_10_18_37_0.csv,79.98046875,39.10550248,10.6918239,60.17673785,123.1777426,341.8535553,2.775286737,89.14393915,412.617168,120.5914934,9,11,21,0,9_11_21_0,11-21-0
508,PS-9_011_21_05_20_10_18_37_1.csv,76.6939454,52.11430674,28.75816993,66.39721048,538.5472968,1249.52459,2.320176144,776.8397439,596.235925,120.4698966,9,11,21,1,9_11_21_1,11-21-1
509,PS-9_011_21_05_20_10_18_37_2.csv,81.69089909,31.25856668,10.42944785,50.52685397,183.2817119,500.7836008,2.732316256,165.516237,533.0289261,120.5205515,9,11,21,2,9_11_21_2,11-21-2
510,PS-9_011_21_05_20_10_18_37_3.csv,80.0133497,33.73651569,11.18012422,44.16031406,194.9268082,292.8946883,1.502588028,120.9882787,219.24997,120.3104492,9,11,21,3,9_11_21_3,11-21-3
511,PS-9_011_21_05_20_10_18_37_4.csv,74.60229779,41.490318,19.46308725,74.83527632,359.5214575,1227.39973,3.413981849,1000.353794,914.4508392,120.6782064,9,11,21,4,9_11_21_4,11-21-4
512,PS-9_011_21_05_20_10_18_37_5.csv,75.25929579,35.77759802,15.89403974,48.56320372,207.1332098,683.3458092,3.299064452,294.2085129,711.1661085,120.3730801,9,11,21,5,9_11_21_5,11-21-5
513,PS-9_011_21_05_20_10_18_37_6.csv,73.05142161,38.27199013,18.05555556,55.82136889,177.8258243,766.1882049,4.30864419,258.1472047,196.1900736,120.1413821,9,11,21,6,9_11_21_6,11-21-6
514,PS-9_011_42_05_20_11_32_47_0.csv,71.7288719,53.17056067,32.19178082,87.76121631,345.9284554,2190.497844,6.332227979,308.1768029,884.3933207,120.3508457,9,11,42,0,9_11_42_0,11-42-0
515,PS-9_011_45_05_20_11_37_59_0.csv,76.02539062,53.73715638,26.62337662,69.46489089,306.641161,1146.707781,3.739575527,202.0896785,670.8034286,120.2219699,9,11,45,0,9_11_45_0,11-45-0
516,PS-9_011_45_05_20_11_37_59_1.csv,73.96242185,48.3352486,28.8590604,60.1430045,352.5111423,667.9491781,1.894831391,252.9770257,364.4682016,120.2813611,9,11,45,1,9_11_45_1,11-45-1
517,PS-9_012_11_05_20_10_17_29_0.csv,82.41627809,44.77081556,13.04347826,91.23977536,580.1286437,3172.259103,5.468199402,3689.356798,4375.615004,120.2558516,9,12,11,0,9_12_11_0,12-11-0
518,PS-9_012_11_05_20_10_17_29_1.csv,85.20957761,24.38521564,6.976744186,35.20521897,195.5685706,216.3473974,1.106248293,36.84382991,54.69125191,120.1252276,9,12,11,1,9_12_11_1,2012/11/1
519,PS-9_012_21_05_20_10_48_07_0.csv,83.46536755,37.85864102,16.86746988,51.25675087,377.3501188,682.219457,1.80792167,230.2740722,223.0443205,120.0166863,9,12,21,0,9_12_21_0,12-21-0
520,PS-9_012_21_05_20_10_48_07_1.csv,79.42958088,40.43041119,18.35443038,52.50780536,337.6082078,398.4650728,1.180258843,799.7848835,353.1358292,120.3909389,9,12,21,1,9_12_21_1,12-21-1
521,PS-9_012_21_05_20_10_48_07_2.csv,81.34248626,32.09409436,14.19753086,41.99524137,229.3151583,521.7452935,2.275232468,44.55383655,169.9182526,120.6705879,9,12,21,2,9_12_21_2,12-21-2
522,PS-9_012_21_05_20_10_48_07_3.csv,82.09679009,37.80814829,15.6626506,37.75693747,188.244038,313.1918704,1.663754527,44.17848925,117.6385703,120.6591504,9,12,21,3,9_12_21_3,12-21-3
523,PS-9_012_21_05_20_10_48_07_4.csv,81.29821612,46.88423859,19.75308642,60.36063886,162.8328429,597.2212342,3.667695187,28.84398013,488.2208555,120.6346484,9,12,21,4,9_12_21_4,12-21-4
524,PS-9_012_21_05_20_10_48_07_5.csv,83.80989951,30.28372362,9.580838323,36.20282004,136.9174032,440.5300429,3.217487571,105.10901,71.01818151,120.4410198,9,12,21,5,9_12_21_5,12-21-5
525,PS-9_012_42_05_20_11_57_08_0.csv,79.16264509,43.59346332,22.5,65.36075932,576.0080981,439.4611405,0.762942643,943.2546323,323.1441379,120.2863991,9,12,42,0,9_12_42_0,12-42-0
526,PS-9_012_45_05_20_12_02_42_0.csv,79.54101562,41.71563309,19.25465839,46.15929644,386.1708608,351.2745071,0.909634938,46.29404345,114.5997943,120.4932344,9,12,45,0,9_12_45_0,12-45-0
527,PS-9_012_45_05_20_12_02_42_1.csv,80.27321729,33.7665438,12.88343558,50.93557617,243.1716225,492.9760801,2.027276354,210.6123181,230.6043808,120.6471442,9,12,45,1,9_12_45_1,12-45-1
528,PS-9_012_45_05_20_12_02_42_2.csv,78.67242631,45.21304285,22.78481013,65.76714696,343.9836748,440.536663,1.280690612,230.3448236,747.0862511,120.38392,9,12,45,2,9_12_45_2,12-45-2
529,PS-9_013_11_05_20_12_36_20_0.csv,68.1210081,49.22761515,26.08695652,81.30555956,388.0500452,1410.494596,3.634826522,141.2427382,1476.5948,120.5051904,9,13,11,0,9_13_11_0,13-11-0
530,PS-9_013_11_05_20_12_36_20_1.csv,69.95567775,56.24674206,24.08759124,93.81501435,347.7098251,986.1647847,2.836171754,1279.321377,1428.064873,120.203119,9,13,11,1,9_13_11_1,2013/11/1
531,PS-9_013_11_05_20_12_36_20_2.csv,66.38250083,62.47501328,25.21008403,81.28331014,449.5168232,2243.08711,4.989995913,2626.495407,5902.051678,120.1282644,9,13,11,2,9_13_11_2,2013/11/2
532,PS-9_013_11_05_20_12_36_20_3.csv,70.43806403,49.90265589,24.44444444,91.0187791,370.0297986,1079.551883,2.917472828,342.946147,1902.320114,120.3792594,9,13,11,3,9_13_11_3,2013/11/3
533,PS-9_013_21_05_20_12_50_49_0.csv,73.24179606,33.02153879,12.92517007,56.50915038,197.2985359,852.3102184,4.319901386,330.4817221,295.1076275,120.1308494,9,13,21,0,9_13_21_0,13-21-0
534,PS-9_013_21_05_20_12_50_49_1.csv,71.72049586,40.14764468,17.93103448,54.36514516,226.3255537,1051.222018,4.644734107,126.6001261,172.1029092,120.7936998,9,13,21,1,9_13_21_1,13-21-1
535,PS-9_013_21_05_20_12_50_49_2.csv,70.70257244,42.01009381,19.58041958,53.30871812,355.6571927,623.5103769,1.753121797,504.0249553,106.2796909,120.0939698,9,13,21,2,9_13_21_2,13-21-2
536,PS-9_013_21_05_20_12_50_49_3.csv,74.08935774,34.89694059,14.09395973,51.49480729,314.6728878,558.1186075,1.77364695,140.8591348,798.9067362,120.6214822,9,13,21,3,9_13_21_3,13-21-3
537,PS-9_013_21_05_20_12_50_49_4.csv,75.88509048,46.65473085,20,62.0874499,534.1251674,908.0087195,1.699992389,359.1445704,708.415321,120.6685347,9,13,21,4,9_13_21_4,13-21-4
538,PS-9_013_45_05_20_13_42_39_0.csv,76.04152123,44.59687241,23.22580645,73.46280907,412.2279958,906.0571292,2.19795147,310.0703499,1391.301015,120.2864388,9,13,45,0,9_13_45_0,13-45-0
539,PS-9_014_11_05_20_13_08_53_0.csv,79.62181945,43.75323948,21.60493827,66.71383781,459.2392154,1451.360037,3.160357366,461.3517359,381.4191035,120.2064898,9,14,11,0,9_14_11_0,14-11-0
540,PS-9_014_21_05_20_13_19_14_0.csv,83.63364139,43.2627154,22.28915663,57.80214885,481.8265197,1202.48128,2.495672675,92.66613276,204.1989545,120.0872558,9,14,21,0,9_14_21_0,14-21-0
541,PS-9_014_21_05_20_13_19_14_1.csv,82.36263029,42.23792659,17.75147929,59.14524334,414.185788,635.6169763,1.534618026,195.4575698,779.0803343,120.1499815,9,14,21,1,9_14_21_1,14-21-1
542,PS-9_014_21_05_20_13_19_14_2.csv,83.31157582,37.68919314,16.07142857,47.35804115,176.9108318,293.4433313,1.658707544,41.9913825,260.9303044,120.4404367,9,14,21,2,9_14_21_2,14-21-2
543,PS-9_014_42_05_20_14_12_23_0.csv,76.62021313,43.86219103,24.35897436,62.63063845,532.7095895,956.9917227,1.796460476,60.70596364,420.6572239,120.2625903,9,14,42,0,9_14_42_0,14-42-0
544,PS-9_014_45_05_20_14_17_36_0.csv,76.41039448,49.55670014,21.05263158,78.76429539,359.5439874,522.5154304,1.453272614,248.6141768,767.8694707,120.0305794,9,14,45,0,9_14_45_0,14-45-0
545,PS-9_014_45_05_20_14_17_36_1.csv,77.78320312,42.29874599,17.94871795,72.46880552,341.4915982,834.000857,2.442229506,252.3480708,344.4581212,120.7050622,9,14,45,1,9_14_45_1,14-45-1
546,PS-9_015_11_05_26_12_55_24_0.csv,74.85260777,29.64423478,6.040268456,56.75364683,255.2461968,1782.8976,6.98501142,706.1760056,1283.219624,120.1372465,9,15,11,0,9_15_11_0,15-11-0
547,PS-9_015_11_05_26_12_55_24_1.csv,78.74941974,29.50735059,5.732484076,57.86174686,181.9738337,1041.090005,5.721097278,512.6641889,981.8434196,120.0614871,9,15,11,1,9_15_11_1,2015/11/1
548,PS-9_015_21_05_26_13_05_49_0.csv,75.5859375,22.70086556,5.263157895,39.34015233,126.0226219,265.6670952,2.108090525,127.0756068,51.98635842,120.4125177,9,15,21,0,9_15_21_0,15-21-0
549,PS-9_015_21_05_26_13_05_49_1.csv,73.80395815,19.15657665,4.026845638,30.75436445,53.98800399,123.3182047,2.284177885,197.4243296,200.2467562,120.1451092,9,15,21,1,9_15_21_1,15-21-1
550,PS-9_015_21_05_26_13_05_49_2.csv,77.34375,22.79740923,3.205128205,40.48510476,97.19481388,562.1541398,5.783787399,140.479857,278.6619987,120.5945241,9,15,21,2,9_15_21_2,15-21-2
551,PS-9_015_42_05_26_13_40_19_0.csv,75.85904828,41.57416345,17.53246753,48.32951112,334.5928045,439.4025518,1.31324567,63.76799422,314.1729876,120.5871586,9,15,42,0,9_15_42_0,15-42-0
552,PS-9_015_45_05_26_13_45_12_0.csv,71.71421876,27.15483406,8.275862069,41.32790839,86.83688875,265.6965079,3.05971934,167.856234,142.2638079,120.5827254,9,15,45,0,9_15_45_0,15-45-0
553,PS-9_016_11_05_24_13_05_22_0.csv,66.796875,11.52642987,0.746268657,24.42288958,6.098474317,41.01895853,6.72610171,34.96153232,90.82212788,120.2959311,9,16,11,0,9_16_11_0,16-11-0
554,PS-9_016_11_05_24_13_05_22_1.csv,68.5546875,10.06894825,0,26.35010415,17.36968682,86.32580972,4.969911698,29.62765722,432.8956029,120.6230097,9,16,11,1,9_16_11_1,2016/11/1
555,PS-9_016_21_05_24_13_17_42_0.csv,71.16221025,21.93337868,3.496503497,32.77145119,93.66908759,104.4632235,1.115236907,60.65642108,109.1201184,120.1438779,9,16,21,0,9_16_21_0,16-21-0
556,PS-9_016_21_05_24_13_17_42_1.csv,68.85153441,14.87409249,0.71942446,33.77415699,41.37582031,416.4850181,10.06590359,202.5956569,287.6868985,120.8295867,9,16,21,1,9_16_21_1,16-21-1
557,PS-9_016_21_05_24_13_17_42_2.csv,71.19140625,10.00360399,0,28.59848054,16.33907269,109.2423947,6.685960501,48.06597234,418.5410793,120.7734695,9,16,21,2,9_16_21_2,16-21-2
558,PS-9_016_21_05_24_13_17_42_3.csv,72.0703125,9.947749219,0,25.40160833,36.53523906,58.00224209,1.587569798,54.01999137,269.8786446,120.7095818,9,16,21,3,9_16_21_3,16-21-3
559,PS-9_016_21_05_24_13_17_42_4.csv,73.80392355,11.1719739,0.675675676,27.7885517,14.33549454,78.46560277,5.473519071,19.49968771,320.1453474,120.2829207,9,16,21,4,9_16_21_4,16-21-4
560,PS-9_016_42_05_24_14_01_35_0.csv,64.16015625,25.08932377,4.580152672,57.32822889,14.98043802,86.05287136,5.744349479,82.30828942,625.5491085,120.5188981,9,16,42,0,9_16_42_0,16-42-0
561,PS-9_016_45_05_24_14_06_12_0.csv,65.04634918,14.68523076,0.757575758,27.89400648,17.55614706,174.8061794,9.956978535,102.3911084,67.78433838,120.813616,9,16,45,0,9_16_45_0,16-45-0
562,PS-9_017_11_05_20_16_14_37_0.csv,67.67578125,27.86626374,8.02919708,44.48891076,133.0350802,836.2208239,6.285716689,292.1012909,243.1782454,120.6794554,9,17,11,0,9_17_11_0,17-11-0
563,PS-9_017_11_05_20_16_14_37_1.csv,66.796875,25.7870437,5.147058824,41.33779607,103.1882805,559.2674672,5.41987389,75.34581301,75.81881468,120.6309075,9,17,11,1,9_17_11_1,2017/11/1
564,PS-9_017_21_05_20_16_25_39_0.csv,66.37130485,31.53448894,8.888888889,44.51133808,179.8575805,500.3161551,2.781735158,144.657976,214.0984995,120.0081048,9,17,21,0,9_17_21_0,17-21-0
565,PS-9_017_21_05_20_16_25_39_1.csv,65.49746179,28.98376048,7.575757576,31.67084181,211.9373352,207.9301641,0.981092661,83.20255121,141.5608016,120.263834,9,17,21,1,9_17_21_1,17-21-1
566,PS-9_017_21_05_20_16_25_39_2.csv,67.92740922,31.34503011,13.86861314,45.69345356,190.8915032,329.7698313,1.727524933,33.76766888,568.4550545,120.3728885,9,17,21,2,9_17_21_2,17-21-2
567,PS-9_017_21_05_20_16_25_39_3.csv,66.8390269,34.59837881,14.70588235,52.64596697,259.2155966,576.3598715,2.223476824,134.1644953,857.2816592,120.6622949,9,17,21,3,9_17_21_3,17-21-3
568,PS-9_017_42_05_20_17_14_34_0.csv,67.40081211,42.62345293,21.16788321,71.61534584,251.2984187,1083.740817,4.312565208,919.6283073,249.6170583,120.7077763,9,17,42,0,9_17_42_0,17-42-0
569,PS-9_017_45_05_20_17_19_55_0.csv,67.88927702,49.14678926,21.32352941,78.27808814,260.3332911,1273.617457,4.892257351,811.1569294,1695.799062,120.4741541,9,17,45,0,9_17_45_0,17-45-0
570,PS-9_017_45_05_20_17_19_55_1.csv,65.30197021,50.16216138,23.30827068,67.9175812,433.9658445,1117.976028,2.576184374,407.148922,504.5134169,120.6469835,9,17,45,1,9_17_45_1,17-45-1
571,PS-9_018_11_05_20_16_51_00_0.csv,85.78018326,53.03327506,25.5952381,93.24918912,564.0615421,1393.900213,2.47118463,1552.105272,1680.889407,120.2603734,9,18,11,0,9_18_11_0,18-11-0
572,PS-9_018_11_05_20_16_51_00_1.csv,87.57375183,49.59398357,28.40909091,55.56208342,323.0638859,577.5553159,1.787743357,312.2776347,170.1399096,120.6949931,9,18,11,1,9_18_11_1,2018/11/1
573,PS-9_018_21_05_20_17_01_53_0.csv,89.70671065,47.68745485,27.52808989,75.13078998,518.4502609,1255.93676,2.422482645,550.3490868,522.9436586,120.5202135,9,18,21,0,9_18_21_0,18-21-0
574,PS-9_018_42_05_20_17_58_14_0.csv,84.82507277,40.49782736,19.76744186,54.22071819,326.2067828,639.5278331,1.960498269,186.7209049,374.035126,120.430663,9,18,42,0,9_18_42_0,18-42-0
575,PS-9_018_45_05_20_18_03_07_0.csv,83.95740238,39.21769678,19.64285714,65.27372643,309.4134027,670.7918747,2.167947054,260.5818413,780.1715,120.2516796,9,18,45,0,9_18_45_0,18-45-0
576,PS-9_019_11_05_20_18_26_19_0.csv,71.19140625,40.97602335,13.4751773,73.85101037,110.4277286,373.486563,3.382180976,262.5156089,854.1109055,120.2868635,9,19,11,0,9_19_11_0,19-11-0
577,PS-9_019_11_05_20_18_26_19_1.csv,71.19140625,22.42932023,6.944444444,35.29653897,59.86024858,264.3187313,4.415596955,16.52794769,156.8060432,120.7427682,9,19,11,1,9_19_11_1,2019/11/1
578,PS-9_019_21_05_20_18_38_01_0.csv,73.30229749,25.80106294,8.108108108,43.05312836,164.2747174,322.7983602,1.964991116,236.0330063,364.7004991,120.6962089,9,19,21,0,9_19_21_0,19-21-0
579,PS-9_019_21_05_20_18_38_01_1.csv,68.5546875,20.46423417,2.877697842,48.74993674,82.18771419,288.7621676,3.513446875,106.2813703,471.0391321,120.6708127,9,19,21,1,9_19_21_1,19-21-1
580,PS-9_019_21_05_20_18_38_01_2.csv,69.2655847,19.34796264,3.571428571,35.68806072,25.20342541,127.3952549,5.054680181,81.60247991,105.785612,120.5194142,9,19,21,2,9_19_21_2,19-21-2
581,PS-9_019_21_05_20_18_38_01_3.csv,66.3607514,38.25613987,13.33333333,57.06475261,125.7914308,809.2477457,6.433250188,281.3496418,487.8466401,120.1949795,9,19,21,3,9_19_21_3,19-21-3
582,PS-9_019_21_05_20_18_38_01_4.csv,67.57379844,29.41977964,8.02919708,58.25461606,238.2987964,225.9762964,0.948289709,351.7229438,443.2993951,120.0710566,9,19,21,4,9_19_21_4,19-21-4
583,PS-9_019_42_05_20_19_34_20_0.csv,65.24678977,51.77020564,22.96296296,130.1396115,413.4046719,4494.794951,10.87262737,2276.695614,893.8170631,120.6992433,9,19,42,0,9_19_42_0,19-42-0
584,PS-9_019_45_05_20_19_39_37_0.csv,65.60752733,55.48188736,32.33082707,98.2045937,485.4079225,1814.200209,3.737475483,889.9068145,3478.606079,120.7242807,9,19,45,0,9_19_45_0,19-45-0
585,PS-9_019_45_05_20_19_39_37_1.csv,67.44699899,45.57469227,20,62.96502315,321.3301672,1089.701039,3.391219219,190.3742023,900.7694115,120.7608214,9,19,45,1,9_19_45_1,19-45-1
586,PS-9_020_11_05_20_19_05_01_0.csv,72.94906815,29.92920627,10,60.63451611,167.5420635,528.1311095,3.152229944,814.0990312,343.808071,120.4213375,9,20,11,0,9_20_11_0,20-11-0
587,PS-9_020_11_05_20_19_05_01_1.csv,71.43646366,30.72901097,9.655172414,42.16179368,216.7996131,420.3113104,1.938708766,36.1724374,163.6567539,120.1029897,9,20,11,1,9_20_11_1,2020/11/1
588,PS-9_020_42_05_20_19_46_59_0.csv,69.00693442,35.19006406,12.05673759,59.76029838,179.2638377,1128.226091,6.293662491,639.7483209,130.007462,120.5064493,9,20,42,0,9_20_42_0,20-42-0
589,PS-9_020_45_05_20_19_51_26_0.csv,72.59777207,51.47770198,25.33333333,68.09717337,467.3482063,1206.308185,2.581176453,119.8432279,308.276422,120.5814292,9,20,45,0,9_20_45_0,20-45-0
590,PS-9_020_45_05_20_19_51_26_1.csv,73.10580254,27.70446242,8.783783784,49.59375855,86.68775805,392.0223996,4.52223484,301.0156322,837.2917765,120.0641493,9,20,45,1,9_20_45_1,20-45-1
591,PS-9_021_11_05_21_18_48_03_0.csv,83.53334658,55.14938885,27.64705882,81.02310114,849.5282367,1282.191385,1.509298137,69.28388425,1299.658577,120.0900266,9,21,11,0,9_21_11_0,21-11-0
592,PS-9_021_11_05_21_18_48_03_1.csv,81.6640223,49.6296998,26.06060606,64.01501088,540.9540456,1225.773525,2.265947607,398.4393993,406.4808196,120.1827409,9,21,11,1,9_21_11_1,2021/11/1
593,PS-9_021_21_05_21_19_03_08_0.csv,77.08318017,50.76054307,24.20382166,91.57329581,482.7242233,789.4564648,1.635419203,938.0517562,350.357456,120.9892964,9,21,21,0,9_21_21_0,21-21-0
594,PS-9_021_21_05_21_19_03_08_1.csv,80.33874198,45.93194424,24.28571429,90.77316216,656.6999197,564.7180617,0.859933197,444.5039842,6029.069298,120.7197021,9,21,21,1,9_21_21_1,21-21-1
595,PS-9_021_21_05_21_19_03_08_2.csv,78.01889681,37.55106003,15.09433962,51.65734518,168.4033084,527.8396477,3.134378135,73.25100863,962.3674556,120.6676837,9,21,21,2,9_21_21_2,21-21-2
596,PS-9_021_21_05_21_19_03_08_3.csv,77.77474055,45.08849192,21.15384615,57.35955336,277.3820029,659.9750263,2.379300096,415.3345408,745.8518114,120.4681145,9,21,21,3,9_21_21_3,21-21-3
597,PS-9_021_21_05_21_19_03_08_4.csv,79.67865674,42.70316379,22.5,67.61644242,586.5768292,1243.260468,2.119518545,413.0983982,1265.846269,120.5692806,9,21,21,4,9_21_21_4,21-21-4
598,PS-9_021_21_05_21_19_03_08_5.csv,78.04738829,50.09038573,26.28205128,83.77004384,661.7649797,1251.222606,1.8907356,700.5421609,2001.482086,120.5657077,9,21,21,5,9_21_21_5,21-21-5
599,PS-9_021_21_05_21_19_03_08_6.csv,77.94777687,40.09247651,22.29299363,51.49415856,254.9570705,336.8084865,1.321039993,97.33352773,176.5743715,120.6718421,9,21,21,6,9_21_21_6,21-21-6
600,PS-9_021_42_05_21_19_56_51_0.csv,80.41992188,51.42391459,29.01234568,62.91823402,708.5883997,585.019663,0.825612815,148.7448427,311.0368717,120.7237365,9,21,42,0,9_21_42_0,21-42-0
601,PS-9_021_45_05_21_20_02_01_0.csv,79.36537338,47.45022215,23.60248447,58.99564793,440.4860505,587.9899475,1.334866216,158.290353,254.6098735,120.3784759,9,21,45,0,9_21_45_0,21-45-0
602,PS-9_022_11_05_21_18_40_14_0.csv,74.47757706,42.80178014,18.66666667,69.52830259,335.7400127,519.1605309,1.546317124,452.0719171,895.3413939,120.658663,9,22,11,0,9_22_11_0,22-11-0
603,PS-9_022_11_05_21_18_40_14_1.csv,76.65298909,38.87568342,20.12987013,46.70316829,225.4222964,661.1506979,2.932942785,125.4311663,293.9727187,120.0686,9,22,11,1,9_22_11_1,2022/11/1
604,PS-9_022_21_05_21_18_50_46_0.csv,73.82818848,36.73522735,16.32653061,54.45046224,153.5006328,757.4732072,4.934658531,141.9589182,352.1403223,120.0410426,9,22,21,0,9_22_21_0,22-21-0
605,PS-9_022_21_05_21_18_50_46_1.csv,73.94508408,41.48009986,20,59.20465109,447.3100813,685.5634689,1.532635855,226.8605559,1336.377575,120.5072146,9,22,21,1,9_22_21_1,22-21-1
606,PS-9_022_21_05_21_18_50_46_2.csv,74.74066388,43.72740649,22.81879195,55.478733,488.6118612,513.9767516,1.051912146,155.9525496,151.335546,120.2419624,9,22,21,2,9_22_21_2,22-21-2
607,PS-9_022_21_05_21_18_50_46_3.csv,73.69952998,33.88905299,16.10738255,46.26547365,187.4609193,772.6120012,4.121456377,74.77525451,550.3787743,120.0058553,9,22,21,3,9_22_21_3,22-21-3
608,PS-9_022_21_05_21_18_50_46_4.csv,75.35617873,37.07762674,16.33986928,56.78561859,351.1668842,748.1900546,2.130582604,535.3899453,144.4652824,120.4885341,9,22,21,4,9_22_21_4,22-21-4
609,PS-9_022_42_05_21_19_57_23_0.csv,74.51229756,53.8718289,25.33333333,56.16882367,472.3278187,384.8507518,0.814795861,97.48894218,272.4926922,120.691039,9,22,42,0,9_22_42_0,22-42-0
610,PS-9_022_45_05_21_20_02_26_0.csv,73.10082487,41.53386215,19.72789116,45.29789435,279.3593956,664.2774347,2.377859651,65.93676019,143.9445327,120.083201,9,22,45,0,9_22_45_0,22-45-0
611,PS-9_023_11_05_22_19_01_18_0.csv,81.18692018,28.3953238,10.42944785,36.57158091,132.5466124,361.4733556,2.727141411,104.7149083,76.9107125,120.0803145,9,23,11,0,9_23_11_0,23-11-0
612,PS-9_023_21_05_22_19_13_58_0.csv,78.17557231,32.53562767,15.09433962,58.36860586,230.9292508,637.7938262,2.761858119,516.2659401,657.6698853,120.8165434,9,23,21,0,9_23_21_0,23-21-0
613,PS-9_023_21_05_22_19_13_58_1.csv,82.77644585,44.46297761,21.21212121,53.33362789,283.8115556,616.8576851,2.173476283,220.9976188,80.01568974,120.3883465,9,23,21,1,9_23_21_1,23-21-1
614,PS-9_023_21_05_22_19_13_58_2.csv,80.04803814,36.61741804,15,49.37995334,160.1608193,519.6909194,3.244806824,670.5279137,416.0040009,120.333083,9,23,21,2,9_23_21_2,23-21-2
615,PS-9_023_21_05_22_19_13_58_3.csv,82.41650964,37.44391035,15.24390244,48.71535102,201.3870979,296.0191781,1.469901404,228.7029304,79.77747644,120.2815313,9,23,21,3,9_23_21_3,23-21-3
616,PS-9_023_21_05_22_19_13_58_4.csv,83.24876661,32.89818898,11.44578313,45.7444932,136.7584012,525.6907924,3.843937834,134.0674184,213.540201,120.2125619,9,23,21,4,9_23_21_4,23-21-4
617,PS-9_023_21_05_22_19_13_58_5.csv,81.73828125,33.22735613,9.87654321,49.76800067,129.3002205,358.9956033,2.776450047,138.0612482,607.7145036,120.1686205,9,23,21,5,9_23_21_5,23-21-5
618,PS-9_023_21_05_22_19_13_58_6.csv,83.49609375,46.36396074,24.24242424,59.22384757,467.023929,565.1667055,1.210145071,168.4265989,327.7685847,120.2211924,9,23,21,6,9_23_21_6,23-21-6
619,PS-9_023_21_05_22_19_13_58_7.csv,83.54351261,32.67082779,12.04819277,47.5680152,151.9519003,620.0555269,4.080603965,108.0477731,540.8068879,120.2244525,9,23,21,7,9_23_21_7,23-21-7
620,PS-9_023_21_05_22_19_13_58_8.csv,85.12330738,30.7581254,10,38.28467615,217.8341516,197.3300148,0.905872717,62.68718649,54.70317088,120.7599417,9,23,21,8,9_23_21_8,23-21-8
621,PS-9_023_42_05_22_20_27_13_0.csv,77.00876858,24.69952583,5.806451613,48.52814765,126.1754285,589.8462226,4.674810537,252.0949738,482.3224591,120.4833573,9,23,42,0,9_23_42_0,23-42-0
622,PS-9_023_45_05_22_20_33_33_0.csv,81.73828125,39.96264091,19.01840491,57.40946006,342.7689692,819.4897573,2.390793306,464.5846984,170.2156665,120.6041697,9,23,45,0,9_23_45_0,23-45-0
623,PS-9_024_11_05_22_18_38_59_0.csv,85.24118419,44.44879543,20.1183432,74.45397039,368.7755368,563.1938159,1.527199501,281.7622321,803.8816337,120.541787,9,24,11,0,9_24_11_0,24-11-0
624,PS-9_024_21_05_22_18_55_08_0.csv,77.36280701,48.69263467,24.67532468,70.76641722,544.6410089,1196.823888,2.197454596,129.7623206,110.0576183,120.1329472,9,24,21,0,9_24_21_0,24-21-0
625,PS-9_024_21_05_22_18_55_08_1.csv,77.40035922,46.88625535,20.64516129,70.23705214,370.6826194,1694.998293,4.572640326,305.7639531,424.7847817,120.4178756,9,24,21,1,9_24_21_1,24-21-1
626,PS-9_024_21_05_22_18_55_08_2.csv,76.11012822,44.21116931,22.51655629,66.8646171,260.7328476,1172.467795,4.496816592,199.587533,381.4791882,120.4182967,9,24,21,2,9_24_21_2,24-21-2
627,PS-9_024_21_05_22_18_55_08_3.csv,76.82311157,38.56557721,16.88311688,44.99218973,108.7779068,382.2525281,3.514064016,82.82441913,59.34788328,120.7384095,9,24,21,3,9_24_21_3,24-21-3
628,PS-9_024_21_05_22_18_55_08_4.csv,80.14473156,40.17280197,16.98113208,55.46565122,201.0615086,955.8405934,4.753971061,187.9218538,265.961255,120.7238107,9,24,21,4,9_24_21_4,24-21-4
629,PS-9_024_42_05_22_19_47_58_0.csv,76.07237455,28.18287199,6.493506494,46.86532233,143.828532,188.4564405,1.310285503,70.36850429,585.7755279,120.1944916,9,24,42,0,9_24_42_0,24-42-0
630,PS-9_024_45_05_22_19_52_41_0.csv,75.00665552,36.83075898,15.23178808,47.68056681,231.3233454,482.3642067,2.085237899,160.8496248,68.85829857,120.3909676,9,24,45,0,9_24_45_0,24-45-0
631,PS-9_024_45_05_22_19_52_41_1.csv,75.64729673,28.77568471,8.496732026,45.77113646,155.654477,166.0392401,1.066716765,154.714925,640.0657694,120.5112735,9,24,45,1,9_24_45_1,24-45-1
632,PS-9_028_11_05_22_12_17_28_0.csv,73.72580908,45.30925079,26.35135135,58.89935672,354.5701221,851.5494702,2.401639104,125.1198759,826.0820311,120.1089698,9,28,11,0,9_28_11_0,28-11-0
633,PS-9_028_11_05_22_12_17_28_1.csv,75.88947529,50.12313486,25,65.38076895,303.8294433,472.5442914,1.555294596,151.8182565,573.4955492,120.2366601,9,28,11,1,9_28_11_1,2028/11/1
634,PS-9_028_21_05_22_12_30_14_0.csv,68.49415632,35.42385972,16.54676259,50.60647446,190.9354436,894.1207324,4.68284314,62.19619597,392.0244116,120.1540875,9,28,21,0,9_28_21_0,28-21-0
635,PS-9_028_21_05_22_12_30_14_1.csv,72.77427528,38.20303955,17.00680272,48.18706762,341.4202216,912.2756306,2.672002339,76.07393518,301.3599667,120.2786891,9,28,21,1,9_28_21_1,28-21-1
636,PS-9_028_21_05_22_12_30_14_2.csv,70.75195313,46.74246169,24.13793103,68.02920437,341.7045099,1511.275737,4.422756192,433.2113136,157.3291163,120.6401928,9,28,21,2,9_28_21_2,28-21-2
637,PS-9_028_21_05_22_12_30_14_3.csv,69.19144254,38.81749503,16.31205674,55.54571443,189.3681669,584.515148,3.08666001,282.3750824,170.0549884,120.7311993,9,28,21,3,9_28_21_3,28-21-3
638,PS-9_028_42_05_22_13_14_23_0.csv,71.9248491,48.73776034,29.16666667,73.87123657,355.6971511,1319.286787,3.709017019,829.3895989,573.9156748,120.1110044,9,28,42,0,9_28_42_0,28-42-0
639,PS-9_028_45_05_22_13_19_26_0.csv,75.11022587,54.05477048,32.45033113,76.33701655,622.4067758,937.6772424,1.506534438,1049.524311,672.0039272,120.4818245,9,28,45,0,9_28_45_0,28-45-0
640,PS-9_028_45_05_22_13_19_26_1.csv,72.07731509,54.98669025,27.08333333,76.89943077,481.1409957,1414.511689,2.939910964,673.5151365,935.2678766,120.1307218,9,28,45,1,9_28_45_1,28-45-1
641,PS-9_028_45_05_22_13_19_26_2.csv,73.21984174,51.99750047,31.97278912,75.15396562,295.6320422,2550.651245,8.627790227,1231.401455,809.2568313,120.6029742,9,28,45,2,9_28_45_2,28-45-2
642,PS-9_029_11_05_23_12_33_06_0.csv,85.69335937,43.06493393,18.45238095,71.91135122,294.1370554,669.0843043,2.274736529,484.7830576,622.4455339,120.5545606,9,29,11,0,9_29_11_0,29-11-0
643,PS-9_029_11_05_23_12_33_06_1.csv,86.52833843,35.21738534,15.11627907,46.88580853,248.640606,375.0418886,1.508369428,108.8239464,298.1555237,120.0493414,9,29,11,1,9_29_11_1,2029/11/1
644,PS-9_029_42_05_23_13_33_17_0.csv,85.20564318,42.69375139,23.52941176,46.8782758,302.2475873,424.2856392,1.40376849,43.08733732,76.78741557,120.3197192,9,29,42,0,9_29_42_0,29-42-0
645,PS-9_030_11_05_23_13_09_58_0.csv,71.46452656,38.7562172,13.79310345,53.58905498,337.1931622,351.8659541,1.0435145,270.8222935,822.2371527,120.7587499,9,30,11,0,9_30_11_0,30-11-0
646,PS-9_030_11_05_23_13_09_58_1.csv,71.53167365,33.87434027,14.48275862,47.84015614,124.783532,418.3904163,3.352929746,192.5079016,185.7447627,120.5503339,9,30,11,1,9_30_11_1,1930/11/1
647,PS-9_030_21_05_23_13_23_21_0.csv,77.60450539,46.80998135,19.87179487,76.21092469,702.2543707,1928.067178,2.745539592,1948.70821,732.7834016,120.6626049,9,30,21,0,9_30_21_0,30-21-0
648,PS-9_030_21_05_23_13_23_21_1.csv,76.68557015,39.00037593,16.56050955,78.49509358,534.315697,2595.370783,4.857373268,803.1382349,778.2436319,120.6279833,9,30,21,1,9_30_21_1,30-21-1
