Old ID,HR,rMSSD,pNN50,SDNN,HF,LF,LFHF,VLF,ULF,Time,Exp,Participant,Step,Seq,ID,No-Step
PS-9_001_11_05_21_12_08_37_0.csv,77.31389877,55.4945759,17.44966443,92.01761614,581.317281,2409.009683,4.144053105,2094.714886,3812.940262,120.5861965,9,1,11,0,9_1_11_0,1_11_0
PS-9_001_11_05_21_12_08_37_1.csv,78.66293827,39.77448327,14.9068323,51.62086566,302.9460958,466.3529656,1.539392559,281.1275685,396.52619,120.4256242,9,1,11,1,9_1_11_1,1_11_1
PS-9_002_11_05_21_12_05_40_0.csv,77.77016801,51.80498114,20.80536913,108.9825502,190.5658036,2052.037517,10.76813089,445.9976028,5060.003646,120.5203669,9,2,11,0,9_2_11_0,2_11_0
PS-9_002_11_05_21_12_05_40_1.csv,77.96330107,64.84943566,24.83221477,98.92824773,422.9992655,1726.516258,4.081605806,837.4263857,968.4558894,120.1654924,9,2,11,1,9_2_11_1,2_11_1
PS-9_005_11_05_25_12_28_57_0.csv,82.47977705,49.52622702,26.2195122,93.44731067,347.3764046,680.6379249,1.959367176,240.8174468,1217.66191,120.414715,9,5,11,0,9_5_11_0,5_11_0
PS-9_005_11_05_25_12_28_57_1.csv,87.45117188,37.79167097,19.31818182,45.9973271,333.9737822,386.544238,1.15740893,154.7347519,140.6283255,120.7005327,9,5,11,1,9_5_11_1,5_11_1
PS-9_006_11_05_25_12_23_59_0.csv,77.02987248,33.68479847,9.615384615,61.17475934,221.5857804,855.5073481,3.860840467,372.4322738,296.4083467,120.8003107,9,6,11,0,9_6_11_0,6_11_0
PS-9_006_11_05_25_12_23_59_1.csv,77.47953731,27.3678092,7.692307692,40.17201999,101.5133096,308.1586744,3.035647992,248.644363,205.9668513,120.1100452,9,6,11,1,9_6_11_1,6_11_1
PS-9_007_11_05_22_14_41_39_0.csv,67.65005191,45.07717904,21.01449275,65.88121447,318.6380352,700.0243425,2.196926497,396.9415145,293.6516162,120.8797335,9,7,11,0,9_7_11_0,7_11_0
PS-9_007_11_05_22_14_41_39_1.csv,66.796875,45.61986671,25.73529412,65.04160657,340.0767635,537.2086268,1.579668723,478.2389995,358.7358181,120.5635323,9,7,11,1,9_7_11_1,7_11_1
PS-9_008_11_05_22_14_55_45_0.csv,83.19225051,45.85419774,15.03267974,61.65581059,158.5813195,542.5616052,3.421346265,233.033581,370.0845406,120.0128779,9,8,11,0,9_8_11_0,8_11_0
PS-9_009_11_05_24_19_02_38_0.csv,81.05303449,32.01514184,12.80487805,39.67097416,115.4016578,112.558192,0.975360269,128.8606963,192.5265864,120.4111476,9,9,11,0,9_9_11_0,9_11_0
PS-9_009_11_05_24_19_02_38_1.csv,78.78933818,47.54069932,18.75,64.22657966,926.7829217,1055.88693,1.139303396,312.2759855,614.761265,120.7220324,9,9,11,1,9_9_11_1,9_11_1
PS-9_011_11_05_20_10_03_57_0.csv,74.27207651,39.65616264,14.56953642,77.44180319,530.0434872,845.0356557,1.594276085,500.035724,999.6465349,120.2414331,9,11,11,0,9_11_11_0,11_11_0
PS-9_011_11_05_20_10_03_57_1.csv,75.67906751,42.75915481,16.88311688,65.12796146,256.4053668,619.5108688,2.416138463,689.5489265,751.6285005,120.2257169,9,11,11,1,9_11_11_1,11_11_1
PS-9_012_11_05_20_10_17_29_0.csv,82.41627809,44.77081556,13.04347826,91.23977536,580.1286437,3172.259103,5.468199402,3689.356798,4375.615004,120.2558516,9,12,11,0,9_12_11_0,12_11_0
PS-9_012_11_05_20_10_17_29_1.csv,85.20957761,24.38521564,6.976744186,35.20521897,195.5685706,216.3473974,1.106248293,36.84382991,54.69125191,120.1252276,9,12,11,1,9_12_11_1,12_11_1
PS-9_013_11_05_20_12_36_20_0.csv,68.1210081,49.22761515,26.08695652,81.30555956,388.0500452,1410.494596,3.634826522,141.2427382,1476.5948,120.5051904,9,13,11,0,9_13_11_0,13_11_0
PS-9_013_11_05_20_12_36_20_1.csv,69.95567775,56.24674206,24.08759124,93.81501435,347.7098251,986.1647847,2.836171754,1279.321377,1428.064873,120.203119,9,13,11,1,9_13_11_1,13_11_1
PS-9_013_11_05_20_12_36_20_2.csv,66.38250083,62.47501328,25.21008403,81.28331014,449.5168232,2243.08711,4.989995913,2626.495407,5902.051678,120.1282644,9,13,11,2,9_13_11_2,13_11_2
PS-9_013_11_05_20_12_36_20_3.csv,70.43806403,49.90265589,24.44444444,91.0187791,370.0297986,1079.551883,2.917472828,342.946147,1902.320114,120.3792594,9,13,11,3,9_13_11_3,13_11_3
PS-9_014_11_05_20_13_08_53_0.csv,79.62181945,43.75323948,21.60493827,66.71383781,459.2392154,1451.360037,3.160357366,461.3517359,381.4191035,120.2064898,9,14,11,0,9_14_11_0,14_11_0
PS-9_015_11_05_26_12_55_24_0.csv,74.85260777,29.64423478,6.040268456,56.75364683,255.2461968,1782.8976,6.98501142,706.1760056,1283.219624,120.1372465,9,15,11,0,9_15_11_0,15_11_0
PS-9_015_11_05_26_12_55_24_1.csv,78.74941974,29.50735059,5.732484076,57.86174686,181.9738337,1041.090005,5.721097278,512.6641889,981.8434196,120.0614871,9,15,11,1,9_15_11_1,15_11_1
PS-9_016_11_05_24_13_05_22_0.csv,66.796875,11.52642987,0.746268657,24.42288958,6.098474317,41.01895853,6.72610171,34.96153232,90.82212788,120.2959311,9,16,11,0,9_16_11_0,16_11_0
PS-9_016_11_05_24_13_05_22_1.csv,68.5546875,10.06894825,0,26.35010415,17.36968682,86.32580972,4.969911698,29.62765722,432.8956029,120.6230097,9,16,11,1,9_16_11_1,16_11_1
PS-9_017_11_05_20_16_14_37_0.csv,67.67578125,27.86626374,8.02919708,44.48891076,133.0350802,836.2208239,6.285716689,292.1012909,243.1782454,120.6794554,9,17,11,0,9_17_11_0,17_11_0
PS-9_017_11_05_20_16_14_37_1.csv,66.796875,25.7870437,5.147058824,41.33779607,103.1882805,559.2674672,5.41987389,75.34581301,75.81881468,120.6309075,9,17,11,1,9_17_11_1,17_11_1
PS-9_018_11_05_20_16_51_00_0.csv,85.78018326,53.03327506,25.5952381,93.24918912,564.0615421,1393.900213,2.47118463,1552.105272,1680.889407,120.2603734,9,18,11,0,9_18_11_0,18_11_0
PS-9_018_11_05_20_16_51_00_1.csv,87.57375183,49.59398357,28.40909091,55.56208342,323.0638859,577.5553159,1.787743357,312.2776347,170.1399096,120.6949931,9,18,11,1,9_18_11_1,18_11_1
PS-9_019_11_05_20_18_26_19_0.csv,71.19140625,40.97602335,13.4751773,73.85101037,110.4277286,373.486563,3.382180976,262.5156089,854.1109055,120.2868635,9,19,11,0,9_19_11_0,19_11_0
PS-9_019_11_05_20_18_26_19_1.csv,71.19140625,22.42932023,6.944444444,35.29653897,59.86024858,264.3187313,4.415596955,16.52794769,156.8060432,120.7427682,9,19,11,1,9_19_11_1,19_11_1
PS-9_020_11_05_20_19_05_01_0.csv,72.94906815,29.92920627,10,60.63451611,167.5420635,528.1311095,3.152229944,814.0990312,343.808071,120.4213375,9,20,11,0,9_20_11_0,20_11_0
PS-9_020_11_05_20_19_05_01_1.csv,71.43646366,30.72901097,9.655172414,42.16179368,216.7996131,420.3113104,1.938708766,36.1724374,163.6567539,120.1029897,9,20,11,1,9_20_11_1,20_11_1
PS-9_021_11_05_21_18_48_03_0.csv,83.53334658,55.14938885,27.64705882,81.02310114,849.5282367,1282.191385,1.509298137,69.28388425,1299.658577,120.0900266,9,21,11,0,9_21_11_0,21_11_0
PS-9_021_11_05_21_18_48_03_1.csv,81.6640223,49.6296998,26.06060606,64.01501088,540.9540456,1225.773525,2.265947607,398.4393993,406.4808196,120.1827409,9,21,11,1,9_21_11_1,21_11_1
PS-9_022_11_05_21_18_40_14_0.csv,74.47757706,42.80178014,18.66666667,69.52830259,335.7400127,519.1605309,1.546317124,452.0719171,895.3413939,120.658663,9,22,11,0,9_22_11_0,22_11_0
PS-9_022_11_05_21_18_40_14_1.csv,76.65298909,38.87568342,20.12987013,46.70316829,225.4222964,661.1506979,2.932942785,125.4311663,293.9727187,120.0686,9,22,11,1,9_22_11_1,22_11_1
PS-9_023_11_05_22_19_01_18_0.csv,81.18692018,28.3953238,10.42944785,36.57158091,132.5466124,361.4733556,2.727141411,104.7149083,76.9107125,120.0803145,9,23,11,0,9_23_11_0,23_11_0
PS-9_024_11_05_22_18_38_59_0.csv,85.24118419,44.44879543,20.1183432,74.45397039,368.7755368,563.1938159,1.527199501,281.7622321,803.8816337,120.541787,9,24,11,0,9_24_11_0,24_11_0
PS-9_028_11_05_22_12_17_28_0.csv,73.72580908,45.30925079,26.35135135,58.89935672,354.5701221,851.5494702,2.401639104,125.1198759,826.0820311,120.1089698,9,28,11,0,9_28_11_0,28_11_0
PS-9_028_11_05_22_12_17_28_1.csv,75.88947529,50.12313486,25,65.38076895,303.8294433,472.5442914,1.555294596,151.8182565,573.4955492,120.2366601,9,28,11,1,9_28_11_1,28_11_1
PS-9_029_11_05_23_12_33_06_0.csv,85.69335937,43.06493393,18.45238095,71.91135122,294.1370554,669.0843043,2.274736529,484.7830576,622.4455339,120.5545606,9,29,11,0,9_29_11_0,29_11_0
PS-9_029_11_05_23_12_33_06_1.csv,86.52833843,35.21738534,15.11627907,46.88580853,248.640606,375.0418886,1.508369428,108.8239464,298.1555237,120.0493414,9,29,11,1,9_29_11_1,29_11_1
PS-9_030_11_05_23_13_09_58_0.csv,71.46452656,38.7562172,13.79310345,53.58905498,337.1931622,351.8659541,1.0435145,270.8222935,822.2371527,120.7587499,9,30,11,0,9_30_11_0,30_11_0
PS-9_030_11_05_23_13_09_58_1.csv,71.53167365,33.87434027,14.48275862,47.84015614,124.783532,418.3904163,3.352929746,192.5079016,185.7447627,120.5503339,9,30,11,1,9_30_11_1,30_11_1
PS-9_031_11_05_24_12_35_03_0.csv,80.47599294,50.52937039,23.125,74.3232455,268.6861842,1139.734804,4.241880942,473.3175715,515.1004431,120.1907614,9,31,11,0,9_31_11_0,31_11_0
PS-9_032_11_05_24_15_30_08_0.csv,73.55950024,39.90475582,17.44966443,60.30422034,322.207098,776.7869556,2.410831296,160.4779309,361.1721303,120.4492041,9,32,11,0,9_32_11_0,32_11_0
PS-9_032_11_05_24_15_30_08_1.csv,72.94978286,36.37902132,16.21621622,52.32404601,333.0312752,507.5496877,1.5240301,265.7924546,126.3646796,120.2566049,9,32,11,1,9_32_11_1,32_11_1
PS-9_033_11_05_24_16_01_19_0.csv,75.62450703,46.08593472,19.20529801,74.49286841,530.111017,1237.037164,2.333543586,2530.819903,271.2285781,120.2859889,9,33,11,0,9_33_11_0,33_11_0
PS-9_033_11_05_24_16_01_19_1.csv,73.67184173,34.59165639,9.395973154,55.56705937,148.1326428,133.6348817,0.902129869,284.692761,283.8120297,120.4602595,9,33,11,1,9_33_11_1,33_11_1
PS-9_033_11_05_24_16_01_19_2.csv,75.35721012,33.61726486,14.56953642,44.32511449,113.5068893,311.2727077,2.742324361,146.8761581,81.82031823,120.3645171,9,33,11,2,9_33_11_2,33_11_2
PS-9_034_11_05_24_18_39_18_0.csv,82.17773437,34.30153116,12.80487805,58.32055823,145.2053985,682.8675098,4.702769434,131.2127847,594.6371528,120.2228343,9,34,11,0,9_34_11_0,34_11_0
PS-9_034_11_05_24_18_39_18_1.csv,83.00642682,35.03707087,15.38461538,48.51369779,239.3995876,564.7893511,2.359190994,35.33320901,526.9587152,120.3613553,9,34,11,1,9_34_11_1,34_11_1
PS-9_035_11_05_25_09_23_09_0.csv,75.62944453,25.24004064,4.666666667,49.09660468,45.91742198,256.2668693,5.581037834,128.3884427,203.1314465,120.6238197,9,35,11,0,9_35_11_0,35_11_0
PS-9_035_11_05_25_09_23_09_1.csv,76.46713024,17.20155771,1.935483871,25.99604312,22.77510396,136.4269484,5.990178952,11.52650578,27.43042599,120.5541984,9,35,11,1,9_35_11_1,35_11_1
PS-9_036_11_05_25_15_09_35_0.csv,79.34499303,49.33460224,21.73913043,74.12558151,321.0269712,823.7686393,2.566041838,229.288075,815.0838143,120.0590312,9,36,11,0,9_36_11_0,36_11_0
PS-9_036_11_05_25_15_09_35_1.csv,80.89329402,28.27386135,7.317073171,46.22226806,202.8763474,191.7404704,0.945110028,193.9633798,392.5673304,120.531976,9,36,11,1,9_36_11_1,36_11_1
PS-9_036_11_05_25_15_09_35_2.csv,80.88694324,25.27130521,6.666666667,51.70787289,118.9353046,333.386759,2.80309333,118.465299,352.6718255,120.5226745,9,36,11,2,9_36_11_2,36_11_2
PS-9_037_11_05_25_10_04_50_0.csv,73.20167413,64.66792064,32.19178082,100.3560156,996.7284298,2636.531902,2.645185813,1371.297067,7266.95416,120.6204978,9,37,11,0,9_37_11_0,37_11_0
PS-9_037_11_05_25_10_04_50_1.csv,74.19569519,52.48415248,31.57894737,76.47842777,631.2512644,1718.884041,2.722979165,100.6613687,168.6706826,120.2002067,9,37,11,1,9_37_11_1,37_11_1
PS-9_038_11_05_25_15_23_12_0.csv,82.65369323,55.96341884,25.88235294,87.23688841,564.027538,1419.256444,2.516289273,445.0580345,587.5985327,120.4341551,9,38,11,0,9_38_11_0,38_11_0
PS-9_039_11_05_25_18_54_25_0.csv,78.37687417,55.94312958,29.29936306,80.64863541,434.3049501,2221.229643,5.114446986,827.5074933,393.5260692,120.3493949,9,39,11,0,9_39_11_0,39_11_0
PS-9_039_11_05_25_18_54_25_1.csv,82.26635653,44.87407614,18.90243902,49.95716245,322.632726,681.5899391,2.112587733,193.2537226,135.7898833,120.208685,9,39,11,1,9_39_11_1,39_11_1
PS-9_040_11_05_25_19_13_43_0.csv,66.90067024,54.9261122,25,77.5128736,211.480172,677.256676,3.202459454,20.24938609,561.7067812,120.034888,9,40,11,0,9_40_11_0,40_11_0
PS-9_040_11_05_25_19_13_43_1.csv,64.17874946,37.32037347,12.97709924,67.77433673,280.4699905,949.6072288,3.385771245,454.3272784,1201.040488,120.8118285,9,40,11,1,9_40_11_1,40_11_1
PS-9_041_11_05_23_15_49_17_0.csv,77.87536258,35.05842879,12.17948718,45.92815212,196.6483931,371.101851,1.88713391,60.12795541,50.08860407,120.4953867,9,41,11,0,9_41_11_0,41_11_0
PS-9_041_11_05_23_15_49_17_1.csv,78.27919818,33.56950712,15.18987342,50.07623776,143.1703367,537.8774594,3.756905738,219.6842439,618.3406186,120.5499483,9,41,11,1,9_41_11_1,41_11_1
PS-9_043_11_05_26_12_30_07_0.csv,72.51766811,26.47248056,6.802721088,50.46493369,87.20494538,597.9962393,6.857366135,347.9243576,705.5907067,120.6891015,9,43,11,0,9_43_11_0,43_11_0
PS-9_043_11_05_26_12_30_07_1.csv,70.50899704,21.91954806,4.929577465,47.24305551,66.99313247,786.3123334,11.73720805,205.7589769,967.1220657,120.2398258,9,43,11,1,9_43_11_1,43_11_1
PS-9_044_11_05_26_15_27_59_0.csv,79.57607256,49.09002669,14.74358974,84.6435933,187.768295,822.4566077,4.380167631,426.6588797,684.368629,120.3849525,9,44,11,0,9_44_11_0,44_11_0
PS-9_044_11_05_26_15_27_59_1.csv,77.069806,45.08339015,21.93548387,61.59033916,400.5674334,1082.63309,2.70274865,396.6998603,645.0296163,120.1233184,9,44,11,1,9_44_11_1,44_11_1
PS-9_045_11_05_26_15_57_28_0.csv,75.88899573,50.10157233,19.31034483,100.2631812,281.1945374,923.7495612,3.285090705,117.5182127,3559.948888,120.6842802,9,45,11,0,9_45_11_0,45_11_0
PS-9_045_11_05_26_15_57_28_1.csv,78.22265625,38.11437063,19.10828025,52.59545159,221.8263794,453.6918319,2.045256444,48.4317536,268.2858987,120.2821676,9,45,11,1,9_45_11_1,45_11_1
PS-9_045_11_05_26_15_57_28_2.csv,74.22477252,48.86093321,29.72972973,87.28057659,426.7583915,1365.021212,3.198580833,1137.181505,1054.367991,120.4610257,9,45,11,2,9_45_11_2,45_11_2
PS-9_045_11_05_26_15_57_28_3.csv,72.94921875,47.04347839,23.61111111,93.69843509,381.5023999,1284.624279,3.367277059,717.4178443,3125.904064,120.115243,9,45,11,3,9_45_11_3,45_11_3
PS-9_046_11_05_26_18_18_28_0.csv,78.93885105,57.70502641,33.12101911,85.518053,475.2026724,1690.393852,3.557206115,170.8390233,669.0597866,120.036872,9,46,11,0,9_46_11_0,46_11_0
PS-9_046_11_05_26_18_18_28_1.csv,80.75658399,29.98388542,8.641975309,50.15195922,137.8879919,339.6814062,2.463458939,81.37309699,408.6117835,120.3596225,9,46,11,1,9_46_11_1,46_11_1
PS-9_047_11_05_26_19_07_49_0.csv,83.49609375,39.31096447,7.36196319,78.90315959,53.32390889,253.3878422,4.751861734,68.54764308,1074.078659,120.2219654,9,47,11,0,9_47_11_0,47_11_0
PS-9_049_11_06_06_10_11_24_0.csv,84.99328719,37.19945652,16.26506024,72.58287144,212.5498266,666.8794723,3.137520661,326.1061215,591.3405038,120.5476755,9,49,11,0,9_49_11_0,49_11_0
PS-9_052_11_06_06_15_18_45_0.csv,69.43359375,47.00879891,28.87323944,62.56027804,381.0293912,861.0519656,2.259804586,74.98124178,126.4224239,120.2292847,9,52,11,0,9_52_11_0,52_11_0
PS-9_052_11_06_06_15_18_45_1.csv,69.21065763,46.35391833,18.88111888,73.88554401,279.3318861,1399.94814,5.011773483,378.6481479,389.4717159,120.5593995,9,52,11,1,9_52_11_1,52_11_1
PS-9_053_11_06_06_15_40_23_0.csv,74.70703125,41.39820359,22.66666667,68.60398604,279.3270675,1377.862859,4.932793915,377.5996496,1359.521881,120.4743606,9,53,11,0,9_53_11_0,53_11_0
PS-9_053_11_06_06_15_40_23_1.csv,76.38482392,36.71515367,11.03896104,48.10516228,327.4601774,217.2956723,0.663578924,234.2303811,125.3208583,120.2382384,9,53,11,1,9_53_11_1,53_11_1
PS-9_054_11_06_06_18_15_44_0.csv,76.51682719,49.00071372,22.87581699,71.97132801,486.5483646,865.464421,1.778783948,933.701508,726.2554409,120.2250909,9,54,11,0,9_54_11_0,54_11_0
PS-9_054_11_06_06_18_15_44_1.csv,75.64820552,46.30891376,26.62337662,50.14054358,420.4405762,327.2817671,0.778425741,194.8043411,176.5858367,120.3713035,9,54,11,1,9_54_11_1,54_11_1
PS-9_055_11_06_06_18_53_38_0.csv,75.92998061,54.83448296,29.60526316,70.46244682,369.3838842,974.1065534,2.637111674,402.1096186,583.1759892,120.1384477,9,55,11,0,9_55_11_0,55_11_0
PS-9_055_11_06_06_18_53_38_1.csv,74.59237593,43.66489014,24,56.61300139,175.2907184,796.2667226,4.542549256,256.8704174,634.8026049,120.063206,9,55,11,1,9_55_11_1,55_11_1
PS-9_056_11_06_07_09_36_59_0.csv,84.2881831,44.40407576,21.76470588,59.85739521,499.0947588,648.7406433,1.299834614,333.3656385,139.6164953,120.7248838,9,56,11,0,9_56_11_0,56_11_0
PS-9_056_11_06_07_09_36_59_1.csv,80.69381842,40.03322339,22.83950617,51.44982722,341.6757695,599.5707178,1.754794373,131.703187,497.7088645,120.2560654,9,56,11,1,9_56_11_1,56_11_1
PS-9_057_11_06_07_09_56_29_0.csv,67.78453804,33.03055861,11.5942029,49.27715898,221.347471,485.01472,2.191191604,375.7300763,177.7380356,120.8987373,9,57,11,0,9_57_11_0,57_11_0
PS-9_057_11_06_07_09_56_29_1.csv,67.92810928,36.26404567,17.51824818,42.4733327,169.1924001,345.7856452,2.043742184,152.3825701,394.9442402,120.574186,9,57,11,1,9_57_11_1,57_11_1
PS-9_057_11_06_07_09_56_29_2.csv,66.64696662,48.08924926,20.14925373,80.42902402,234.2137332,1546.268011,6.601952794,404.156509,1034.605761,120.6155009,9,57,11,2,9_57_11_2,57_11_2
PS-9_058_11_06_07_12_29_53_0.csv,73.56735499,39.78323965,14.38356164,70.03492073,188.4465668,1241.464695,6.587887039,335.2282152,1516.167894,120.6563155,9,58,11,0,9_58_11_0,58_11_0
PS-9_058_11_06_07_12_29_53_1.csv,73.65576627,26.85212047,7.432432432,38.78836391,136.0442749,350.3563362,2.575311137,254.5208853,156.6517033,120.4614708,9,58,11,1,9_58_11_1,58_11_1
PS-9_060_11_06_07_15_31_50_0.csv,80.69667689,40.72626217,18.125,71.81929611,348.9117567,779.1796053,2.233170967,72.85131832,642.9370867,120.6005037,9,60,11,0,9_60_11_0,60_11_0
PS-9_060_11_06_07_15_31_50_1.csv,79.34000023,40.57045588,13.20754717,52.39805544,223.6004017,863.1366391,3.860174815,693.2918515,341.4188987,120.2099444,9,60,11,1,9_60_11_1,60_11_1
PS-9_061_11_06_07_15_59_09_0.csv,69.52666148,46.53305294,21.9858156,76.27032252,289.3207203,779.7607131,2.695142996,150.8382551,348.9947245,120.1596068,9,61,11,0,9_61_11_0,61_11_0
PS-9_061_11_06_07_15_59_09_1.csv,72.99294554,51.3989314,26.02739726,84.51506891,349.5590764,1728.484947,4.944757736,325.3919482,1123.219837,120.6189999,9,61,11,1,9_61_11_1,61_11_1
PS-9_061_11_06_07_15_59_09_2.csv,72.96768446,52.29986441,19.8630137,99.12037197,420.3183188,1674.278477,3.983358332,2320.344972,670.932645,120.1478006,9,61,11,2,9_61_11_2,61_11_2
PS-9_061_11_06_07_15_59_09_3.csv,72.05861024,53.67993173,32.19178082,90.33872414,513.6064317,2000.910836,3.895805644,177.821702,2027.911814,120.7076315,9,61,11,3,9_61_11_3,61_11_3
PS-9_062_11_06_07_18_25_20_0.csv,74.93177432,47.75514316,26.17449664,77.95324961,381.0689768,434.5474905,1.140338146,942.3402311,1151.125535,120.5699807,9,62,11,0,9_62_11_0,62_11_0
PS-9_062_11_06_07_18_25_20_1.csv,78.92074757,32.50247302,10.75949367,44.86808235,316.7816329,418.9105157,1.322395215,244.6134109,604.5714292,120.5827839,9,62,11,1,9_62_11_1,62_11_1
PS-9_063_11_06_07_18_58_24_0.csv,78.24577976,51.6976545,27.09677419,91.4482527,684.373234,879.0493908,1.284459045,859.3615166,1148.243581,120.0442084,9,63,11,0,9_63_11_0,63_11_0
PS-9_063_11_06_07_18_58_24_1.csv,79.03390157,20.45336419,5,37.18277598,34.06789556,214.0307539,6.282476519,102.6008649,144.5043961,120.6323163,9,63,11,1,9_63_11_1,63_11_1
PS-9_064_11_06_08_09_19_50_0.csv,92.1392862,33.76714174,14.20765027,49.49937759,291.9679987,461.6563154,1.581188067,144.8141928,319.2635901,120.4492322,9,64,11,0,9_64_11_0,64_11_0
PS-9_065_11_06_08_09_57_50_0.csv,77.24985798,51.71925798,25,88.72245151,664.4561947,1114.24721,1.676931029,1778.5585,1481.163102,120.1163359,9,65,11,0,9_65_11_0,65_11_0
PS-9_066_11_06_08_12_49_47_0.csv,86.52019983,30.95861922,10.46511628,48.94427665,185.6694441,425.921798,2.293978958,424.6490405,115.4017247,120.6710226,9,66,11,0,9_66_11_0,66_11_0
PS-9_067_11_06_08_13_12_18_0.csv,72.74519679,18.50112879,2.739726027,24.52886255,44.6078898,63.41753932,1.421666427,35.61555841,61.76709212,120.5564057,9,67,11,0,9_67_11_0,67_11_0
PS-9_067_11_06_08_13_12_18_1.csv,72.19755959,15.7952352,1.379310345,33.2483023,21.54921014,114.2171734,5.300295124,21.99685416,279.4111438,120.4112183,9,67,11,1,9_67_11_1,67_11_1
PS-9_069_11_06_09_12_19_53_0.csv,75.86311589,37.36158245,14.66666667,61.62646982,207.7390034,281.6057824,1.355574918,96.50349149,394.0582659,120.2119948,9,69,11,0,9_69_11_0,69_11_0
PS-9_069_11_06_09_12_19_53_1.csv,75.5859375,23.89210217,5.921052632,35.75074478,92.23626716,313.3334755,3.397074548,67.82820169,120.257387,120.7704565,9,69,11,1,9_69_11_1,69_11_1
PS-9_070_11_06_15_19_51_33_0.csv,73.55540071,20.14471297,2,41.76003298,33.34303699,249.5846119,7.485359294,165.1758868,356.9836085,120.813372,9,70,11,0,9_70_11_0,70_11_0
PS-9_070_11_06_15_19_51_33_1.csv,72.45574089,14.382316,2.054794521,27.05706408,30.0470266,172.8263895,5.7518633,214.0648774,67.35346959,120.4604547,9,70,11,1,9_70_11_1,70_11_1
PS-9_072_11_06_16_09_45_43_0.csv,83.17864374,39.14866969,17.85714286,49.1507351,254.9137915,467.8766865,1.835431044,162.7012625,54.97866127,120.4971711,9,72,11,0,9_72_11_0,72_11_0
PS-9_072_11_06_16_09_45_43_1.csv,82.79922501,31.45728653,12.5748503,46.36229404,272.1420347,570.4454472,2.096131337,50.90071731,171.6416689,120.4536161,9,72,11,1,9_72_11_1,72_11_1
PS-9_073_11_06_09_09_55_21_0.csv,81.73828125,34.49032886,12.72727273,49.90096523,154.4680497,340.2569864,2.202766119,157.6198409,130.2471322,120.1100419,9,73,11,0,9_73_11_0,73_11_0
PS-9_075_11_06_09_12_49_52_0.csv,78.22145352,38.96784027,12.82051282,55.65074745,313.067029,508.0397738,1.622782749,147.0566093,354.5005953,120.8378317,9,75,11,0,9_75_11_0,75_11_0
PS-9_075_11_06_09_12_49_52_1.csv,77.49145656,28.78349241,5.769230769,51.12902361,110.2655888,585.0659891,5.30597075,213.4581668,423.6698263,120.4037442,9,75,11,1,9_75_11_1,75_11_1
PS-9_078_11_06_09_18_09_05_0.csv,55.43331136,57.51473808,25.22522523,98.25349986,435.9176658,628.6618276,1.442157262,1035.990038,669.1316167,120.121046,9,78,11,0,9_78_11_0,78_11_0
PS-9_078_11_06_09_18_09_05_1.csv,56.25,44.62877703,19.29824561,73.24856864,176.0498243,1143.090167,6.492992379,300.1874244,988.4848393,120.6524724,9,78,11,1,9_78_11_1,78_11_1
PS-9_078_11_06_09_18_09_05_2.csv,59.24891911,34.21166153,12.5,50.24714561,178.2615149,210.6118358,1.181476753,347.7791914,596.03483,120.9167482,9,78,11,2,9_78_11_2,78_11_2
PS-9_079_11_06_09_18_55_19_0.csv,82.13325126,38.20145743,15.33742331,59.90812757,191.0407926,326.6574942,1.709883474,138.6879272,224.7503191,120.3093287,9,79,11,0,9_79_11_0,79_11_0
PS-9_079_11_06_09_18_55_19_1.csv,82.61431031,30.66256246,10.84337349,37.74517994,201.4867816,570.64202,2.832156112,107.5555761,18.97223915,120.1568247,9,79,11,1,9_79_11_1,79_11_1
PS-9_080_11_06_10_09_23_36_0.csv,87.45144659,41.79637695,20,64.42253138,166.2384204,1447.112418,8.70504192,776.0652135,494.978485,120.442789,9,80,11,0,9_80_11_0,80_11_0
PS-9_081_11_06_11_16_06_45_0.csv,76.22833747,25.60329451,7.096774194,49.34429527,41.69637307,232.1629102,5.56794016,94.05803896,296.3510986,120.3546029,9,81,11,0,9_81_11_0,81_11_0
PS-9_081_11_06_11_16_06_45_1.csv,76.89233589,27.11770882,3.246753247,38.27928837,199.9886597,717.9111286,3.589759189,125.9456566,76.07314376,120.7604792,9,81,11,1,9_81_11_1,81_11_1
PS-9_082_11_06_10_12_36_54_0.csv,70.05941222,49.62430994,26.05633803,85.96931222,490.9062935,1760.019756,3.585245858,2332.916125,1441.022726,120.6837774,9,82,11,0,9_82_11_0,82_11_0
PS-9_082_11_06_10_12_36_54_1.csv,72.69190592,49.85316997,22.75862069,68.43032284,374.7852879,844.7020381,2.253829234,224.4580611,274.5656868,120.6532212,9,82,11,1,9_82_11_1,82_11_1
PS-9_001_21_05_21_12_23_12_0.csv,73.40499504,43.93972315,20.80536913,58.58291943,434.7698654,1098.633861,2.526931944,73.59077975,394.003227,120.6727106,9,1,21,0,9_1_21_0,1_21_0
PS-9_001_21_05_21_12_23_12_1.csv,74.35900383,51.62568835,23.33333333,72.82024662,680.0912837,1339.097338,1.968996472,418.193547,798.3854595,120.303813,9,1,21,1,9_1_21_1,1_21_1
PS-9_001_21_05_21_12_23_12_2.csv,75.99090939,48.47499606,28.10457516,80.33847364,310.8180978,2766.94878,8.902148233,818.9826569,782.2939871,120.5646599,9,1,21,2,9_1_21_2,1_21_2
PS-9_001_21_05_21_12_23_12_3.csv,75.6352028,37.38523741,14.37908497,51.64147307,316.641569,775.3920965,2.448800702,416.3123632,284.8225276,120.0933359,9,1,21,3,9_1_21_3,1_21_3
PS-9_001_21_05_21_12_23_12_4.csv,77.54336333,40.54852244,18.06451613,55.2733499,239.8647815,772.6225506,3.221075415,345.7937075,277.796699,120.6027256,9,1,21,4,9_1_21_4,1_21_4
PS-9_001_21_05_21_12_23_12_5.csv,76.90429688,43.08600833,23.22580645,54.86773803,260.1523699,522.9688215,2.010240467,661.0328745,132.9909156,120.2340018,9,1,21,5,9_1_21_5,1_21_5
PS-9_001_21_05_21_12_23_12_6.csv,76.36776668,46.24443245,21.93548387,53.82452784,380.1454821,720.3402287,1.89490672,108.7424508,110.137721,120.0600228,9,1,21,6,9_1_21_6,1_21_6
PS-9_002_21_05_21_12_19_02_0.csv,78.22264269,42.99680321,14.64968153,68.1442286,324.5623826,1029.38741,3.171616505,421.7366333,666.3673675,120.8265612,9,2,21,0,9_2_21_0,2_21_0
PS-9_002_21_05_21_12_19_02_1.csv,74.24929306,47.83065744,20.68965517,97.70426511,258.1198853,1821.368872,7.056290413,671.071158,2060.076171,120.1481192,9,2,21,1,9_2_21_1,2_21_1
PS-9_003_21_05_21_15_06_24_0.csv,77.70332395,49.34773641,26.11464968,75.72762139,512.5144032,1609.428019,3.140259101,162.989371,642.1361993,120.884776,9,3,21,0,9_3_21_0,3_21_0
PS-9_003_21_05_21_15_06_24_1.csv,80.85073988,41.36429042,22.08588957,71.17019384,247.5466564,1388.076961,5.60733472,593.033108,91.17722879,120.5948525,9,3,21,1,9_3_21_1,3_21_1
PS-9_003_21_05_21_15_06_24_2.csv,85.32532185,38.10708453,15.97633136,54.58977869,139.6060501,349.2820035,2.501911653,154.4181645,344.9611936,120.1964001,9,3,21,2,9_3_21_2,3_21_2
PS-9_003_21_05_21_15_06_24_3.csv,84.70140574,36.65116799,14.37125749,47.6063749,356.8592963,682.2513672,1.911821758,84.11136425,45.86997432,120.1999847,9,3,21,3,9_3_21_3,3_21_3
PS-9_003_21_05_21_15_06_24_4.csv,83.54776175,34.8899777,16.96969697,54.23507632,225.1650193,630.9034567,2.801960352,642.2731021,931.4203468,120.2260746,9,3,21,4,9_3_21_4,3_21_4
PS-9_004_21_05_21_15_13_29_0.csv,72.19905063,42.90453833,20.94594595,72.9789853,262.680624,1001.550399,3.812806532,690.6925769,684.8675426,120.3902016,9,4,21,0,9_4_21_0,4_21_0
PS-9_004_21_05_21_15_13_29_1.csv,77.03686401,40.47376118,22.58064516,72.26842856,169.1040864,847.1186771,5.00945125,74.44495421,781.3188965,120.2525975,9,4,21,1,9_4_21_1,4_21_1
PS-9_004_21_05_21_15_13_29_2.csv,77.13155321,51.03681348,28.84615385,56.89645376,344.1374732,484.2933714,1.40726718,144.064388,268.5330616,120.4570253,9,4,21,2,9_4_21_2,4_21_2
PS-9_004_21_05_21_15_13_29_3.csv,74.20454478,43.80326045,18.42105263,74.72393089,188.2993523,1088.480376,5.780584812,210.053179,1250.159127,120.2859278,9,4,21,3,9_4_21_3,4_21_3
PS-9_004_21_05_21_15_13_29_4.csv,76.01794443,43.75319453,23.37662338,75.19023884,443.7023931,1507.319997,3.397141915,1527.820525,771.4993159,120.624556,9,4,21,4,9_4_21_4,4_21_4
PS-9_004_21_05_21_15_13_29_5.csv,79.09499195,47.44633972,25.94936709,63.73475484,466.2664246,1832.830931,3.930866205,289.5658779,308.9663596,120.6959067,9,4,21,5,9_4_21_5,4_21_5
PS-9_004_21_05_21_15_13_29_6.csv,77.53310103,42.18789341,18.06451613,62.87704006,335.3680838,913.4134833,2.72361482,242.810021,503.496398,120.1267573,9,4,21,6,9_4_21_6,4_21_6
PS-9_004_21_05_21_15_13_29_7.csv,78.13901877,52.85023172,30.12820513,62.25679402,493.3348586,503.307814,1.020215388,668.3869153,80.39812876,120.7020582,9,4,21,7,9_4_21_7,4_21_7
PS-9_004_21_05_21_15_13_29_8.csv,76.08601914,49.46270633,20.91503268,81.98348225,282.0193403,636.7524825,2.257832678,1133.36809,799.8474041,120.3923892,9,4,21,8,9_4_21_8,4_21_8
PS-9_005_21_05_25_12_43_49_0.csv,84.81445312,39.67232942,15.88235294,59.03181416,324.7680161,1443.664048,4.445216204,211.7935161,83.81789509,120.3917882,9,5,21,0,9_5_21_0,5_21_0
PS-9_005_21_05_25_12_43_49_1.csv,88.30841186,40.37144604,18.88888889,53.18177071,145.3348885,641.5826434,4.414512235,85.44606833,287.9814486,120.2019228,9,5,21,1,9_5_21_1,5_21_1
PS-9_005_21_05_25_12_43_49_2.csv,87.43755113,39.93845797,16.47727273,51.8154569,310.8431543,1406.822966,4.525829011,107.0724212,86.5607567,120.2800345,9,5,21,2,9_5_21_2,5_21_2
PS-9_005_21_05_25_12_43_49_3.csv,86.78450193,41.36365916,16.57142857,51.94342816,437.84943,494.9312615,1.130368633,239.6656378,258.3406956,120.6050549,9,5,21,3,9_5_21_3,5_21_3
PS-9_005_21_05_25_12_43_49_4.csv,86.77709915,38.42676208,18.18181818,54.95523099,302.5264123,472.957668,1.563359921,217.3897752,79.85634528,120.8120403,9,5,21,4,9_5_21_4,5_21_4
PS-9_005_21_05_25_12_43_49_5.csv,86.07790375,42.97565423,22.98850575,53.18674899,247.6382864,360.3128528,1.454996552,154.1602724,305.1915568,120.2607637,9,5,21,5,9_5_21_5,5_21_5
PS-9_005_21_05_25_12_43_49_6.csv,87.80623875,40.20354736,18.99441341,51.50880739,194.9414152,415.3018072,2.130392901,106.3937078,436.8358026,120.1329142,9,5,21,6,9_5_21_6,5_21_6
PS-9_005_21_05_25_12_43_49_7.csv,87.09326511,37.55343124,18.18181818,45.34296233,275.9654366,431.4028745,1.563249659,97.89306166,121.7203961,120.6119033,9,5,21,7,9_5_21_7,5_21_7
PS-9_006_21_05_25_12_36_48_0.csv,75.10363375,34.47862074,11.9205298,41.78330903,181.5742901,373.9266323,2.059358911,96.86655585,213.6411915,120.3924177,9,6,21,0,9_6_21_0,6_21_0
PS-9_006_21_05_25_12_36_48_1.csv,76.02411373,36.91277899,9.74025974,56.85990695,132.0951527,359.0285121,2.717953723,235.611556,213.119219,120.6651526,9,6,21,1,9_6_21_1,6_21_1
PS-9_006_21_05_25_12_36_48_2.csv,76.11147741,30.93445385,8.441558442,40.44919039,83.88661847,213.6196453,2.546528269,144.8728463,252.0777648,120.3926438,9,6,21,2,9_6_21_2,6_21_2
PS-9_006_21_05_25_12_36_48_3.csv,77.16692281,28.6542972,8.387096774,42.59762461,82.41734203,367.5758735,4.459933606,238.3027363,248.9801501,120.4704039,9,6,21,3,9_6_21_3,6_21_3
PS-9_007_21_05_22_14_52_48_0.csv,66.43334698,60.73647192,30.82706767,95.90960942,406.0530523,2434.645201,5.995879571,363.5690279,997.6289256,120.4700094,9,7,21,0,9_7_21_0,7_21_0
PS-9_007_21_05_22_14_52_48_1.csv,69.48460359,47.86924372,20.56737589,51.75440133,274.6344059,313.4108744,1.141193047,427.1226666,170.2706413,120.4718479,9,7,21,1,9_7_21_1,7_21_1
PS-9_007_21_05_22_14_52_48_2.csv,69.0176866,42.88086345,19.28571429,61.92205788,283.0205127,1100.100495,3.88699916,230.2565865,241.8413413,120.6456488,9,7,21,2,9_7_21_2,7_21_2
PS-9_007_21_05_22_14_52_48_3.csv,69.03475853,44.66192583,21.42857143,54.14712284,414.0522897,675.0298664,1.630301011,43.37288976,126.6987863,120.0697064,9,7,21,3,9_7_21_3,7_21_3
PS-9_007_21_05_22_14_52_48_4.csv,68.22266302,38.57212322,22.30215827,57.84972755,153.5118705,1377.429034,8.972785163,365.9562705,177.9914181,120.2063866,9,7,21,4,9_7_21_4,7_21_4
PS-9_008_21_05_22_15_08_02_0.csv,79.12315572,41.53056077,16.02564103,84.76858503,350.9399262,1074.621059,3.062122543,508.4452837,979.7069471,120.649006,9,8,21,0,9_8_21_0,8_21_0
PS-9_008_21_05_22_15_08_02_1.csv,82.72278272,41.554053,15.75757576,65.38786148,182.3969261,362.2091385,1.985829182,1337.927315,346.9629622,120.1096437,9,8,21,1,9_8_21_1,8_21_1
PS-9_008_21_05_22_15_08_02_2.csv,88.13246416,33.03769736,13.14285714,48.94986772,409.9627115,353.199215,0.861539855,120.0889786,87.87238013,120.4009846,9,8,21,2,9_8_21_2,8_21_2
PS-9_008_21_05_22_15_08_02_3.csv,86.33047096,42.13619918,22.22222222,49.5164855,241.5608635,689.2621611,2.85336851,57.71768351,226.9790197,120.0807779,9,8,21,3,9_8_21_3,8_21_3
PS-9_008_21_05_22_15_08_02_4.csv,86.64933343,39.41355877,19.88304094,53.35572686,165.3235592,507.2830569,3.068425694,192.5157764,589.1463972,120.3209343,9,8,21,4,9_8_21_4,8_21_4
PS-9_008_21_05_22_15_08_02_5.csv,87.64675797,35.91669236,16.27906977,48.43259274,270.7935983,687.0351326,2.537117335,268.7144692,274.5809226,120.0202183,9,8,21,5,9_8_21_5,8_21_5
PS-9_009_21_05_24_19_15_09_0.csv,80.41992187,45.47170291,22.64150943,93.88029056,238.3764017,2820.657178,11.83278696,4545.604912,1295.876129,120.0741289,9,9,21,0,9_9_21_0,9_21_0
PS-9_009_21_05_24_19_15_09_1.csv,80.65032122,45.69335903,24.22360248,75.83144881,220.796981,1170.145989,5.299646688,472.5769189,377.1879474,120.6137321,9,9,21,1,9_9_21_1,9_21_1
PS-9_009_21_05_24_19_15_09_2.csv,80.28184943,42.42007033,20.24539877,48.74721016,287.411816,287.4494823,1.000131053,146.7658959,145.2313388,120.7113326,9,9,21,2,9_9_21_2,9_21_2
PS-9_009_21_05_24_19_15_09_3.csv,78.81843561,44.48392605,17.61006289,73.60913677,292.7783217,1832.053829,6.257477735,241.7277987,919.3259395,120.2033492,9,9,21,3,9_9_21_3,9_21_3
PS-9_009_21_05_24_19_15_09_4.csv,79.99550597,42.53472191,18.51851852,58.22912042,305.8507282,282.6757692,0.924227877,579.4523915,1041.671722,120.5087439,9,9,21,4,9_9_21_4,9_21_4
PS-9_009_21_05_24_19_15_09_5.csv,79.59422744,43.90872302,22.36024845,68.02466502,333.6427375,1287.794495,3.859800769,557.7044931,1082.352005,120.0721226,9,9,21,5,9_9_21_5,9_21_5
PS-9_011_21_05_20_10_18_37_0.csv,79.98046875,39.10550248,10.6918239,60.17673785,123.1777426,341.8535553,2.775286737,89.14393915,412.617168,120.5914934,9,11,21,0,9_11_21_0,11_21_0
PS-9_011_21_05_20_10_18_37_1.csv,76.6939454,52.11430674,28.75816993,66.39721048,538.5472968,1249.52459,2.320176144,776.8397439,596.235925,120.4698966,9,11,21,1,9_11_21_1,11_21_1
PS-9_011_21_05_20_10_18_37_2.csv,81.69089909,31.25856668,10.42944785,50.52685397,183.2817119,500.7836008,2.732316256,165.516237,533.0289261,120.5205515,9,11,21,2,9_11_21_2,11_21_2
PS-9_011_21_05_20_10_18_37_3.csv,80.0133497,33.73651569,11.18012422,44.16031406,194.9268082,292.8946883,1.502588028,120.9882787,219.24997,120.3104492,9,11,21,3,9_11_21_3,11_21_3
PS-9_011_21_05_20_10_18_37_4.csv,74.60229779,41.490318,19.46308725,74.83527632,359.5214575,1227.39973,3.413981849,1000.353794,914.4508392,120.6782064,9,11,21,4,9_11_21_4,11_21_4
PS-9_011_21_05_20_10_18_37_5.csv,75.25929579,35.77759802,15.89403974,48.56320372,207.1332098,683.3458092,3.299064452,294.2085129,711.1661085,120.3730801,9,11,21,5,9_11_21_5,11_21_5
PS-9_011_21_05_20_10_18_37_6.csv,73.05142161,38.27199013,18.05555556,55.82136889,177.8258243,766.1882049,4.30864419,258.1472047,196.1900736,120.1413821,9,11,21,6,9_11_21_6,11_21_6
PS-9_012_21_05_20_10_48_07_0.csv,83.46536755,37.85864102,16.86746988,51.25675087,377.3501188,682.219457,1.80792167,230.2740722,223.0443205,120.0166863,9,12,21,0,9_12_21_0,12_21_0
PS-9_012_21_05_20_10_48_07_1.csv,79.42958088,40.43041119,18.35443038,52.50780536,337.6082078,398.4650728,1.180258843,799.7848835,353.1358292,120.3909389,9,12,21,1,9_12_21_1,12_21_1
PS-9_012_21_05_20_10_48_07_2.csv,81.34248626,32.09409436,14.19753086,41.99524137,229.3151583,521.7452935,2.275232468,44.55383655,169.9182526,120.6705879,9,12,21,2,9_12_21_2,12_21_2
PS-9_012_21_05_20_10_48_07_3.csv,82.09679009,37.80814829,15.6626506,37.75693747,188.244038,313.1918704,1.663754527,44.17848925,117.6385703,120.6591504,9,12,21,3,9_12_21_3,12_21_3
PS-9_012_21_05_20_10_48_07_4.csv,81.29821612,46.88423859,19.75308642,60.36063886,162.8328429,597.2212342,3.667695187,28.84398013,488.2208555,120.6346484,9,12,21,4,9_12_21_4,12_21_4
PS-9_012_21_05_20_10_48_07_5.csv,83.80989951,30.28372362,9.580838323,36.20282004,136.9174032,440.5300429,3.217487571,105.10901,71.01818151,120.4410198,9,12,21,5,9_12_21_5,12_21_5
PS-9_013_21_05_20_12_50_49_0.csv,73.24179606,33.02153879,12.92517007,56.50915038,197.2985359,852.3102184,4.319901386,330.4817221,295.1076275,120.1308494,9,13,21,0,9_13_21_0,13_21_0
PS-9_013_21_05_20_12_50_49_1.csv,71.72049586,40.14764468,17.93103448,54.36514516,226.3255537,1051.222018,4.644734107,126.6001261,172.1029092,120.7936998,9,13,21,1,9_13_21_1,13_21_1
PS-9_013_21_05_20_12_50_49_2.csv,70.70257244,42.01009381,19.58041958,53.30871812,355.6571927,623.5103769,1.753121797,504.0249553,106.2796909,120.0939698,9,13,21,2,9_13_21_2,13_21_2
PS-9_013_21_05_20_12_50_49_3.csv,74.08935774,34.89694059,14.09395973,51.49480729,314.6728878,558.1186075,1.77364695,140.8591348,798.9067362,120.6214822,9,13,21,3,9_13_21_3,13_21_3
PS-9_013_21_05_20_12_50_49_4.csv,75.88509048,46.65473085,20,62.0874499,534.1251674,908.0087195,1.699992389,359.1445704,708.415321,120.6685347,9,13,21,4,9_13_21_4,13_21_4
PS-9_014_21_05_20_13_19_14_0.csv,83.63364139,43.2627154,22.28915663,57.80214885,481.8265197,1202.48128,2.495672675,92.66613276,204.1989545,120.0872558,9,14,21,0,9_14_21_0,14_21_0
PS-9_014_21_05_20_13_19_14_1.csv,82.36263029,42.23792659,17.75147929,59.14524334,414.185788,635.6169763,1.534618026,195.4575698,779.0803343,120.1499815,9,14,21,1,9_14_21_1,14_21_1
PS-9_014_21_05_20_13_19_14_2.csv,83.31157582,37.68919314,16.07142857,47.35804115,176.9108318,293.4433313,1.658707544,41.9913825,260.9303044,120.4404367,9,14,21,2,9_14_21_2,14_21_2
PS-9_015_21_05_26_13_05_49_0.csv,75.5859375,22.70086556,5.263157895,39.34015233,126.0226219,265.6670952,2.108090525,127.0756068,51.98635842,120.4125177,9,15,21,0,9_15_21_0,15_21_0
PS-9_015_21_05_26_13_05_49_1.csv,73.80395815,19.15657665,4.026845638,30.75436445,53.98800399,123.3182047,2.284177885,197.4243296,200.2467562,120.1451092,9,15,21,1,9_15_21_1,15_21_1
PS-9_015_21_05_26_13_05_49_2.csv,77.34375,22.79740923,3.205128205,40.48510476,97.19481388,562.1541398,5.783787399,140.479857,278.6619987,120.5945241,9,15,21,2,9_15_21_2,15_21_2
PS-9_016_21_05_24_13_17_42_0.csv,71.16221025,21.93337868,3.496503497,32.77145119,93.66908759,104.4632235,1.115236907,60.65642108,109.1201184,120.1438779,9,16,21,0,9_16_21_0,16_21_0
PS-9_016_21_05_24_13_17_42_1.csv,68.85153441,14.87409249,0.71942446,33.77415699,41.37582031,416.4850181,10.06590359,202.5956569,287.6868985,120.8295867,9,16,21,1,9_16_21_1,16_21_1
PS-9_016_21_05_24_13_17_42_2.csv,71.19140625,10.00360399,0,28.59848054,16.33907269,109.2423947,6.685960501,48.06597234,418.5410793,120.7734695,9,16,21,2,9_16_21_2,16_21_2
PS-9_016_21_05_24_13_17_42_3.csv,72.0703125,9.947749219,0,25.40160833,36.53523906,58.00224209,1.587569798,54.01999137,269.8786446,120.7095818,9,16,21,3,9_16_21_3,16_21_3
PS-9_016_21_05_24_13_17_42_4.csv,73.80392355,11.1719739,0.675675676,27.7885517,14.33549454,78.46560277,5.473519071,19.49968771,320.1453474,120.2829207,9,16,21,4,9_16_21_4,16_21_4
PS-9_017_21_05_20_16_25_39_0.csv,66.37130485,31.53448894,8.888888889,44.51133808,179.8575805,500.3161551,2.781735158,144.657976,214.0984995,120.0081048,9,17,21,0,9_17_21_0,17_21_0
PS-9_017_21_05_20_16_25_39_1.csv,65.49746179,28.98376048,7.575757576,31.67084181,211.9373352,207.9301641,0.981092661,83.20255121,141.5608016,120.263834,9,17,21,1,9_17_21_1,17_21_1
PS-9_017_21_05_20_16_25_39_2.csv,67.92740922,31.34503011,13.86861314,45.69345356,190.8915032,329.7698313,1.727524933,33.76766888,568.4550545,120.3728885,9,17,21,2,9_17_21_2,17_21_2
PS-9_017_21_05_20_16_25_39_3.csv,66.8390269,34.59837881,14.70588235,52.64596697,259.2155966,576.3598715,2.223476824,134.1644953,857.2816592,120.6622949,9,17,21,3,9_17_21_3,17_21_3
PS-9_018_21_05_20_17_01_53_0.csv,89.70671065,47.68745485,27.52808989,75.13078998,518.4502609,1255.93676,2.422482645,550.3490868,522.9436586,120.5202135,9,18,21,0,9_18_21_0,18_21_0
PS-9_019_21_05_20_18_38_01_0.csv,73.30229749,25.80106294,8.108108108,43.05312836,164.2747174,322.7983602,1.964991116,236.0330063,364.7004991,120.6962089,9,19,21,0,9_19_21_0,19_21_0
PS-9_019_21_05_20_18_38_01_1.csv,68.5546875,20.46423417,2.877697842,48.74993674,82.18771419,288.7621676,3.513446875,106.2813703,471.0391321,120.6708127,9,19,21,1,9_19_21_1,19_21_1
PS-9_019_21_05_20_18_38_01_2.csv,69.2655847,19.34796264,3.571428571,35.68806072,25.20342541,127.3952549,5.054680181,81.60247991,105.785612,120.5194142,9,19,21,2,9_19_21_2,19_21_2
PS-9_019_21_05_20_18_38_01_3.csv,66.3607514,38.25613987,13.33333333,57.06475261,125.7914308,809.2477457,6.433250188,281.3496418,487.8466401,120.1949795,9,19,21,3,9_19_21_3,19_21_3
PS-9_019_21_05_20_18_38_01_4.csv,67.57379844,29.41977964,8.02919708,58.25461606,238.2987964,225.9762964,0.948289709,351.7229438,443.2993951,120.0710566,9,19,21,4,9_19_21_4,19_21_4
PS-9_021_21_05_21_19_03_08_0.csv,77.08318017,50.76054307,24.20382166,91.57329581,482.7242233,789.4564648,1.635419203,938.0517562,350.357456,120.9892964,9,21,21,0,9_21_21_0,21_21_0
PS-9_021_21_05_21_19_03_08_1.csv,80.33874198,45.93194424,24.28571429,90.77316216,656.6999197,564.7180617,0.859933197,444.5039842,6029.069298,120.7197021,9,21,21,1,9_21_21_1,21_21_1
PS-9_021_21_05_21_19_03_08_2.csv,78.01889681,37.55106003,15.09433962,51.65734518,168.4033084,527.8396477,3.134378135,73.25100863,962.3674556,120.6676837,9,21,21,2,9_21_21_2,21_21_2
PS-9_021_21_05_21_19_03_08_3.csv,77.77474055,45.08849192,21.15384615,57.35955336,277.3820029,659.9750263,2.379300096,415.3345408,745.8518114,120.4681145,9,21,21,3,9_21_21_3,21_21_3
PS-9_021_21_05_21_19_03_08_4.csv,79.67865674,42.70316379,22.5,67.61644242,586.5768292,1243.260468,2.119518545,413.0983982,1265.846269,120.5692806,9,21,21,4,9_21_21_4,21_21_4
PS-9_021_21_05_21_19_03_08_5.csv,78.04738829,50.09038573,26.28205128,83.77004384,661.7649797,1251.222606,1.8907356,700.5421609,2001.482086,120.5657077,9,21,21,5,9_21_21_5,21_21_5
PS-9_021_21_05_21_19_03_08_6.csv,77.94777687,40.09247651,22.29299363,51.49415856,254.9570705,336.8084865,1.321039993,97.33352773,176.5743715,120.6718421,9,21,21,6,9_21_21_6,21_21_6
PS-9_022_21_05_21_18_50_46_0.csv,73.82818848,36.73522735,16.32653061,54.45046224,153.5006328,757.4732072,4.934658531,141.9589182,352.1403223,120.0410426,9,22,21,0,9_22_21_0,22_21_0
PS-9_022_21_05_21_18_50_46_1.csv,73.94508408,41.48009986,20,59.20465109,447.3100813,685.5634689,1.532635855,226.8605559,1336.377575,120.5072146,9,22,21,1,9_22_21_1,22_21_1
PS-9_022_21_05_21_18_50_46_2.csv,74.74066388,43.72740649,22.81879195,55.478733,488.6118612,513.9767516,1.051912146,155.9525496,151.335546,120.2419624,9,22,21,2,9_22_21_2,22_21_2
PS-9_022_21_05_21_18_50_46_3.csv,73.69952998,33.88905299,16.10738255,46.26547365,187.4609193,772.6120012,4.121456377,74.77525451,550.3787743,120.0058553,9,22,21,3,9_22_21_3,22_21_3
PS-9_022_21_05_21_18_50_46_4.csv,75.35617873,37.07762674,16.33986928,56.78561859,351.1668842,748.1900546,2.130582604,535.3899453,144.4652824,120.4885341,9,22,21,4,9_22_21_4,22_21_4
PS-9_023_21_05_22_19_13_58_0.csv,78.17557231,32.53562767,15.09433962,58.36860586,230.9292508,637.7938262,2.761858119,516.2659401,657.6698853,120.8165434,9,23,21,0,9_23_21_0,23_21_0
PS-9_023_21_05_22_19_13_58_1.csv,82.77644585,44.46297761,21.21212121,53.33362789,283.8115556,616.8576851,2.173476283,220.9976188,80.01568974,120.3883465,9,23,21,1,9_23_21_1,23_21_1
PS-9_023_21_05_22_19_13_58_2.csv,80.04803814,36.61741804,15,49.37995334,160.1608193,519.6909194,3.244806824,670.5279137,416.0040009,120.333083,9,23,21,2,9_23_21_2,23_21_2
PS-9_023_21_05_22_19_13_58_3.csv,82.41650964,37.44391035,15.24390244,48.71535102,201.3870979,296.0191781,1.469901404,228.7029304,79.77747644,120.2815313,9,23,21,3,9_23_21_3,23_21_3
PS-9_023_21_05_22_19_13_58_4.csv,83.24876661,32.89818898,11.44578313,45.7444932,136.7584012,525.6907924,3.843937834,134.0674184,213.540201,120.2125619,9,23,21,4,9_23_21_4,23_21_4
PS-9_023_21_05_22_19_13_58_5.csv,81.73828125,33.22735613,9.87654321,49.76800067,129.3002205,358.9956033,2.776450047,138.0612482,607.7145036,120.1686205,9,23,21,5,9_23_21_5,23_21_5
PS-9_023_21_05_22_19_13_58_6.csv,83.49609375,46.36396074,24.24242424,59.22384757,467.023929,565.1667055,1.210145071,168.4265989,327.7685847,120.2211924,9,23,21,6,9_23_21_6,23_21_6
PS-9_023_21_05_22_19_13_58_7.csv,83.54351261,32.67082779,12.04819277,47.5680152,151.9519003,620.0555269,4.080603965,108.0477731,540.8068879,120.2244525,9,23,21,7,9_23_21_7,23_21_7
PS-9_023_21_05_22_19_13_58_8.csv,85.12330738,30.7581254,10,38.28467615,217.8341516,197.3300148,0.905872717,62.68718649,54.70317088,120.7599417,9,23,21,8,9_23_21_8,23_21_8
PS-9_024_21_05_22_18_55_08_0.csv,77.36280701,48.69263467,24.67532468,70.76641722,544.6410089,1196.823888,2.197454596,129.7623206,110.0576183,120.1329472,9,24,21,0,9_24_21_0,24_21_0
PS-9_024_21_05_22_18_55_08_1.csv,77.40035922,46.88625535,20.64516129,70.23705214,370.6826194,1694.998293,4.572640326,305.7639531,424.7847817,120.4178756,9,24,21,1,9_24_21_1,24_21_1
PS-9_024_21_05_22_18_55_08_2.csv,76.11012822,44.21116931,22.51655629,66.8646171,260.7328476,1172.467795,4.496816592,199.587533,381.4791882,120.4182967,9,24,21,2,9_24_21_2,24_21_2
PS-9_024_21_05_22_18_55_08_3.csv,76.82311157,38.56557721,16.88311688,44.99218973,108.7779068,382.2525281,3.514064016,82.82441913,59.34788328,120.7384095,9,24,21,3,9_24_21_3,24_21_3
PS-9_024_21_05_22_18_55_08_4.csv,80.14473156,40.17280197,16.98113208,55.46565122,201.0615086,955.8405934,4.753971061,187.9218538,265.961255,120.7238107,9,24,21,4,9_24_21_4,24_21_4
PS-9_028_21_05_22_12_30_14_0.csv,68.49415632,35.42385972,16.54676259,50.60647446,190.9354436,894.1207324,4.68284314,62.19619597,392.0244116,120.1540875,9,28,21,0,9_28_21_0,28_21_0
PS-9_028_21_05_22_12_30_14_1.csv,72.77427528,38.20303955,17.00680272,48.18706762,341.4202216,912.2756306,2.672002339,76.07393518,301.3599667,120.2786891,9,28,21,1,9_28_21_1,28_21_1
PS-9_028_21_05_22_12_30_14_2.csv,70.75195313,46.74246169,24.13793103,68.02920437,341.7045099,1511.275737,4.422756192,433.2113136,157.3291163,120.6401928,9,28,21,2,9_28_21_2,28_21_2
PS-9_028_21_05_22_12_30_14_3.csv,69.19144254,38.81749503,16.31205674,55.54571443,189.3681669,584.515148,3.08666001,282.3750824,170.0549884,120.7311993,9,28,21,3,9_28_21_3,28_21_3
PS-9_030_21_05_23_13_23_21_0.csv,77.60450539,46.80998135,19.87179487,76.21092469,702.2543707,1928.067178,2.745539592,1948.70821,732.7834016,120.6626049,9,30,21,0,9_30_21_0,30_21_0
PS-9_030_21_05_23_13_23_21_1.csv,76.68557015,39.00037593,16.56050955,78.49509358,534.315697,2595.370783,4.857373268,803.1382349,778.2436319,120.6279833,9,30,21,1,9_30_21_1,30_21_1
PS-9_031_21_05_24_12_50_15_0.csv,77.36797471,41.95720619,17.94871795,54.73199948,345.4014201,604.2194596,1.749325349,217.3449203,230.093657,120.7957677,9,31,21,0,9_31_21_0,31_21_0
PS-9_031_21_05_24_12_50_15_1.csv,80.84259967,37.22134673,19.25465839,49.92555679,134.9524608,480.2436991,3.558613872,244.7689136,58.26287711,120.505767,9,31,21,1,9_31_21_1,31_21_1
PS-9_031_21_05_24_12_50_15_2.csv,78.65192031,35.83192278,13.37579618,47.79839714,316.3182179,501.480199,1.585366162,66.81222206,165.1333036,120.3702439,9,31,21,2,9_31_21_2,31_21_2
PS-9_031_21_05_24_12_50_15_3.csv,79.5974322,34.53811371,13.83647799,41.59215517,146.2128909,266.0107768,1.81933874,66.05801089,155.5431222,120.0216025,9,31,21,3,9_31_21_3,31_21_3
PS-9_031_21_05_24_12_50_15_4.csv,79.45821397,31.66997498,16.25,42.35208882,196.5315771,726.0816974,3.694478557,93.79577202,63.33619304,120.6832606,9,31,21,4,9_31_21_4,31_21_4
PS-9_031_21_05_24_12_50_15_5.csv,78.4465951,29.34347074,7.594936709,41.6180397,185.5941718,621.6523895,3.349525384,298.8324597,276.2934147,120.6589586,9,31,21,5,9_31_21_5,31_21_5
PS-9_031_21_05_24_12_50_15_6.csv,77.34375,21.0017599,3.846153846,27.77531392,77.43012034,249.7073466,3.224938119,22.14681384,86.2557119,120.5182014,9,31,21,6,9_31_21_6,31_21_6
PS-9_032_21_05_24_15_47_45_0.csv,71.94446709,50.13511283,25.69444444,74.19621674,459.4547025,1853.656928,4.034471555,489.7117298,1264.536427,120.4849327,9,32,21,0,9_32_21_0,32_21_0
PS-9_032_21_05_24_15_47_45_1.csv,72.63883784,37.17076544,18.36734694,46.12986036,171.5008661,327.8251274,1.911507124,135.0744425,402.081097,120.0481121,9,32,21,1,9_32_21_1,32_21_1
PS-9_032_21_05_24_15_47_45_2.csv,73.90969034,43.2426152,18.79194631,68.18258732,170.9549684,1555.30876,9.097768697,792.3194711,1082.699832,120.009815,9,32,21,2,9_32_21_2,32_21_2
PS-9_032_21_05_24_15_47_45_3.csv,72.52102641,45.98878809,23.28767123,52.70404861,621.2242676,676.472977,1.088935208,175.7679915,278.2262692,120.6405479,9,32,21,3,9_32_21_3,32_21_3
PS-9_032_21_05_24_15_47_45_4.csv,73.57878864,42.13619288,18.12080537,54.84757116,408.8072452,536.0555666,1.311267285,145.0999477,348.9781105,120.8152203,9,32,21,4,9_32_21_4,32_21_4
PS-9_032_21_05_24_15_47_45_5.csv,73.93549091,39.51715405,18.66666667,48.60254414,195.0900039,331.5984235,1.699720216,323.2210446,354.7984711,120.8308406,9,32,21,5,9_32_21_5,32_21_5
PS-9_032_21_05_24_15_47_45_6.csv,72.97528077,35.35831545,14.96598639,40.64262436,171.4487127,440.4225579,2.568829775,161.8634795,15.98214452,120.4569433,9,32,21,6,9_32_21_6,32_21_6
PS-9_033_21_05_24_16_15_31_0.csv,73.828125,41.01529086,16.89189189,70.97917121,285.3168276,795.9701439,2.789776371,1271.305039,471.9755867,120.6241788,9,33,21,0,9_33_21_0,33_21_0
PS-9_033_21_05_24_16_15_31_1.csv,74.6976819,33.96401107,13.24503311,41.20251253,221.8443016,129.6619437,0.584472726,135.9056946,154.2343243,120.4434156,9,33,21,1,9_33_21_1,33_21_1
PS-9_033_21_05_24_16_15_31_2.csv,73.01664617,26.74161804,7.482993197,35.27902855,123.9442229,426.830941,3.443734052,69.50394884,31.83362381,120.6599577,9,33,21,2,9_33_21_2,33_21_2
PS-9_033_21_05_24_16_15_31_3.csv,73.4592973,41.10934639,15.54054054,49.57175147,166.7597191,393.2094688,2.357940341,189.7231352,376.7265223,120.8801525,9,33,21,3,9_33_21_3,33_21_3
PS-9_034_21_05_24_18_51_16_0.csv,78.34177425,34.0192974,13.29113924,53.87146664,321.9004977,610.2747455,1.895849028,251.6562954,345.0395549,120.2067276,9,34,21,0,9_34_21_0,34_21_0
PS-9_034_21_05_24_18_51_16_1.csv,82.06179327,35.31995602,14.02439024,46.83491921,254.1627134,419.91668,1.652156897,332.1773678,510.7726364,120.0227926,9,34,21,1,9_34_21_1,34_21_1
PS-9_034_21_05_24_18_51_16_2.csv,82.46357328,22.36212616,6.024096386,28.38915335,67.20597453,191.914167,2.855611697,30.0496576,91.29865167,120.3879382,9,34,21,2,9_34_21_2,34_21_2
PS-9_034_21_05_24_18_51_16_3.csv,81.74769078,35.67908306,15.6626506,42.84642284,427.3059524,583.1226564,1.364649037,50.92024538,39.66627032,120.5965346,9,34,21,3,9_34_21_3,34_21_3
PS-9_034_21_05_24_18_51_16_4.csv,81.71381322,33.22616594,11.51515152,45.60731142,211.0850196,478.3965411,2.266368982,64.3630541,292.5044061,120.4307274,9,34,21,4,9_34_21_4,34_21_4
PS-9_034_21_05_24_18_51_16_5.csv,80.79446613,30.40900696,11.72839506,39.81551947,226.9226657,312.7050483,1.378024744,113.9446636,248.9489993,120.0049871,9,34,21,5,9_34_21_5,34_21_5
PS-9_034_21_05_24_18_51_16_6.csv,81.32263803,27.46298547,6.707317073,40.64630927,140.0858531,279.3201557,1.993921223,220.0287215,216.6310347,120.0618574,9,34,21,6,9_34_21_6,34_21_6
PS-9_035_21_05_25_09_37_40_0.csv,78.57271695,40.15031951,11.03896104,78.24840297,215.4383435,526.8782909,2.445610574,802.9994275,668.4176797,120.6630709,9,35,21,0,9_35_21_0,35_21_0
PS-9_035_21_05_25_09_37_40_1.csv,77.34375,37.5614822,10.8974359,48.2217551,214.4486553,239.5983925,1.117276264,319.4470999,149.4276526,120.3276587,9,35,21,1,9_35_21_1,35_21_1
PS-9_035_21_05_25_09_37_40_2.csv,78.22265625,42.73711516,16.66666667,69.06015882,288.3734541,2220.517126,7.700144014,430.3341562,647.5476582,120.1903744,9,35,21,2,9_35_21_2,35_21_2
PS-9_035_21_05_25_09_37_40_3.csv,79.64587676,26.29727569,7.594936709,42.47659013,172.9138174,197.9540738,1.144813507,40.56395619,235.8884818,120.7246158,9,35,21,3,9_35_21_3,35_21_3
PS-9_035_21_05_25_09_37_40_4.csv,79.54502497,22.174908,3.773584906,40.19858135,31.17537643,114.8366055,3.683567567,42.48380998,25.31262321,120.313183,9,35,21,4,9_35_21_4,35_21_4
PS-9_035_21_05_25_09_37_40_5.csv,80.41992187,19.59991012,6.211180124,27.07990579,75.80036865,132.2852149,1.745179045,62.98651617,41.79795237,120.2759724,9,35,21,5,9_35_21_5,35_21_5
PS-9_036_21_05_25_15_22_56_0.csv,81.77174655,49.02562733,19.63190184,69.35392999,768.618049,1915.571323,2.49222787,349.9693424,772.2250446,120.4262064,9,36,21,0,9_36_21_0,36_21_0
PS-9_036_21_05_25_15_22_56_1.csv,81.23448791,28.00164671,8.588957055,42.18096609,146.0102124,261.4077024,1.790338484,51.32105025,271.1172243,120.4180784,9,36,21,1,9_36_21_1,36_21_1
PS-9_036_21_05_25_15_22_56_2.csv,82.06099878,29.49445271,9.696969697,39.53056852,175.573118,498.4684084,2.839092989,64.68339587,48.3243236,120.4441943,9,36,21,2,9_36_21_2,36_21_2
PS-9_037_21_05_25_10_20_07_0.csv,72.06304203,39.22391348,15.75342466,52.59339789,343.4620821,1067.092782,3.106872162,151.8079282,117.7927391,120.618434,9,37,21,0,9_37_21_0,37_21_0
PS-9_037_21_05_25_10_20_07_1.csv,73.21259554,31.95795435,11.56462585,42.42306605,192.5004619,305.8602335,1.588880518,14.63959202,265.7260017,120.4474563,9,37,21,1,9_37_21_1,37_21_1
PS-9_037_21_05_25_10_20_07_2.csv,74.28027337,42.30242451,21.33333333,64.56009485,466.1043692,837.2284869,1.796225357,422.5134175,328.1108266,120.5114328,9,37,21,2,9_37_21_2,37_21_2
PS-9_037_21_05_25_10_20_07_3.csv,72.24547765,30.75640066,11.72413793,43.12802857,148.2202737,559.2458466,3.773072553,449.8732478,383.0224258,120.7561984,9,37,21,3,9_37_21_3,37_21_3
PS-9_038_21_05_25_15_32_57_0.csv,78.35024076,50.63999817,19.10828025,74.59274059,229.740765,1755.766345,7.642380509,704.9619332,400.1114754,120.4232627,9,38,21,0,9_38_21_0,38_21_0
PS-9_038_21_05_25_15_32_57_1.csv,74.07997997,48.58724116,25.16556291,79.60877138,264.5313234,1389.268063,5.251809297,1208.364811,980.3104255,120.3909651,9,38,21,1,9_38_21_1,38_21_1
PS-9_038_21_05_25_15_32_57_2.csv,82.07027421,43.3126151,25.15337423,58.94043648,295.1877715,1068.14881,3.618540174,100.341823,476.0843526,120.2059897,9,38,21,2,9_38_21_2,38_21_2
PS-9_038_21_05_25_15_32_57_3.csv,78.57116098,53.61614994,22.43589744,89.14535893,417.0477229,1588.437414,3.808766544,342.6215772,1237.147838,120.7628771,9,38,21,3,9_38_21_3,38_21_3
PS-9_038_21_05_25_15_32_57_4.csv,85.31431393,50.338783,22.35294118,70.48669782,534.3558421,2183.57563,4.086369902,1136.683592,558.734999,120.4056518,9,38,21,4,9_38_21_4,38_21_4
PS-9_039_21_05_25_19_06_08_0.csv,73.97854349,59.67401946,32.66666667,80.53572447,621.9155348,1197.728344,1.925869797,181.5090456,1176.398634,120.1132487,9,39,21,0,9_39_21_0,39_21_0
PS-9_039_21_05_25_19_06_08_1.csv,81.43289975,45.45067336,21.60493827,65.38659671,237.4008846,1066.854311,4.49389358,384.9605996,184.4620776,120.3030272,9,39,21,1,9_39_21_1,39_21_1
PS-9_039_21_05_25_19_06_08_2.csv,81.84344318,32.98894317,11.04294479,46.62008118,146.1956781,349.7853867,2.392583633,256.0100011,484.810821,120.1666113,9,39,21,2,9_39_21_2,39_21_2
PS-9_040_21_05_25_19_24_51_0.csv,68.14377348,32.72817849,9.352517986,52.39243914,232.4286531,728.3381497,3.133598806,123.1187664,940.6294094,120.0970302,9,40,21,0,9_40_21_0,40_21_0
PS-9_040_21_05_25_19_24_51_1.csv,68.64607487,37.14313604,13.57142857,50.31463179,173.2489972,1199.0281,6.92083717,22.06323208,67.86688204,120.7795242,9,40,21,1,9_40_21_1,40_21_1
PS-9_040_21_05_25_19_24_51_2.csv,68.06489247,38.12183746,13.76811594,41.32587944,258.32844,523.8442741,2.027822698,193.4907768,212.8445008,120.3445656,9,40,21,2,9_40_21_2,40_21_2
PS-9_043_21_05_26_12_40_08_0.csv,65.95372327,16.60794106,1.503759398,30.11003821,44.90079441,127.4960815,2.839506142,250.4197271,125.6629021,120.7028965,9,43,21,0,9_43_21_0,43_21_0
PS-9_043_21_05_26_12_40_08_1.csv,64.66863833,28.14427776,5.384615385,44.69666275,128.7818123,549.8937722,4.269964542,162.9759857,290.0969293,120.4066341,9,43,21,1,9_43_21_1,43_21_1
PS-9_043_21_05_26_12_40_08_2.csv,64.17440233,20.40117751,4.615384615,40.8053115,52.8771139,496.7074385,9.393618559,92.34495201,445.2138582,120.1156573,9,43,21,2,9_43_21_2,43_21_2
PS-9_043_21_05_26_12_40_08_3.csv,65.31630869,28.55187653,5.970149254,43.76124955,153.6122509,394.5551401,2.5685135,191.3930786,255.3751929,120.8909521,9,43,21,3,9_43_21_3,43_21_3
PS-9_043_21_05_26_12_40_08_4.csv,64.45677384,16.47014142,2.307692308,39.59710424,25.01783956,224.3587474,8.967950526,128.8196257,252.8673938,120.1621462,9,43,21,4,9_43_21_4,43_21_4
PS-9_043_21_05_26_12_40_08_5.csv,62.51267272,15.52702385,0.793650794,28.94754035,45.22768737,421.7318808,9.324639515,232.2294389,60.0989237,120.4523663,9,43,21,5,9_43_21_5,43_21_5
PS-9_044_21_05_26_15_38_11_0.csv,78.46064042,41.11980551,20,61.10662975,312.5702303,713.5071197,2.282709774,399.5751791,944.7055912,120.3316464,9,44,21,0,9_44_21_0,44_21_0
PS-9_044_21_05_26_15_38_11_1.csv,75.91956192,38.57411279,18.95424837,66.16125884,336.7755523,1731.813711,5.142337972,563.9667187,553.9478842,120.5379819,9,44,21,1,9_44_21_1,44_21_1
PS-9_044_21_05_26_15_38_11_2.csv,76.54987838,40.74226295,16.99346405,57.69121896,434.5478345,588.9016544,1.35520559,112.8992959,580.1459795,120.5915577,9,44,21,2,9_44_21_2,44_21_2
PS-9_044_21_05_26_15_38_11_3.csv,78.4287889,39.44100958,17.72151899,55.69451783,283.6841778,605.289354,2.133673294,207.5365941,435.4637494,120.1452361,9,44,21,3,9_44_21_3,44_21_3
PS-9_044_21_05_26_15_38_11_4.csv,78.6740206,54.03420835,23.87096774,88.45684802,264.3362913,883.5559604,3.342545045,784.1198638,720.5561364,120.4975127,9,44,21,4,9_44_21_4,44_21_4
PS-9_044_21_05_26_15_38_11_5.csv,80.41316611,33.64075366,11.25,41.49978283,172.7670019,596.6627115,3.453568707,68.09360327,119.2493989,120.4364266,9,44,21,5,9_44_21_5,44_21_5
PS-9_045_21_05_26_16_12_50_0.csv,72.06496487,51.26327504,25.36231884,101.9057753,409.0931429,3329.983333,8.139914812,1268.99351,3633.627433,120.0865079,9,45,21,0,9_45_21_0,45_21_0
PS-9_045_21_05_26_16_12_50_1.csv,75.14648437,40.02337304,18,71.30152464,212.6805424,689.3259579,3.241133157,281.5572399,2491.035324,120.1537094,9,45,21,1,9_45_21_1,45_21_1
PS-9_045_21_05_26_16_12_50_2.csv,78.53274842,43.4889758,15.72327044,62.75742922,512.3429144,2041.375938,3.984393814,753.0948041,62.9568853,120.7248857,9,45,21,2,9_45_21_2,45_21_2
PS-9_045_21_05_26_16_12_50_3.csv,75.62965769,38.5866934,14.37908497,52.33095678,258.5796235,1076.515297,4.163186882,226.5533076,170.6012343,120.2929114,9,45,21,3,9_45_21_3,45_21_3
PS-9_046_21_05_26_18_31_38_0.csv,78.10507916,34.15444608,10.82802548,52.99114124,185.5522694,393.1216876,2.118657394,43.62787132,470.9423781,120.7725634,9,46,21,0,9_46_21_0,46_21_0
PS-9_046_21_05_26_18_31_38_1.csv,80.59661853,29.77052185,7.36196319,57.64521468,231.5166908,589.6019233,2.546692945,150.0043,513.4733833,120.2296484,9,46,21,1,9_46_21_1,46_21_1
PS-9_046_21_05_26_18_31_38_2.csv,76.76279461,30.41779788,11.68831169,49.23418355,118.5308246,909.1379547,7.670055089,293.4147479,504.3966298,120.0620112,9,46,21,2,9_46_21_2,46_21_2
PS-9_046_21_05_26_18_31_38_3.csv,77.90963637,30.49089499,9.554140127,42.07731922,110.1362532,429.1647237,3.896670817,126.3443172,116.9549084,120.2646407,9,46,21,3,9_46_21_3,46_21_3
PS-9_046_21_05_26_18_31_38_4.csv,76.46484375,33.57658187,10.38961039,44.86058625,154.2602946,1068.286114,6.925217643,20.43154979,88.88732332,120.3195025,9,46,21,4,9_46_21_4,46_21_4
PS-9_047_21_05_26_19_18_44_0.csv,77.48144334,49.41934647,20.26143791,80.41468195,244.0538025,1022.376431,4.189143624,565.2110212,1717.162025,120.1658496,9,47,21,0,9_47_21_0,47_21_0
PS-9_047_21_05_26_19_18_44_1.csv,83.49609375,28.74477155,9.090909091,52.29801614,138.8205021,687.6401728,4.953448248,176.9777216,106.6692202,120.3355701,9,47,21,1,9_47_21_1,47_21_1
PS-9_047_21_05_26_19_18_44_2.csv,82.8750586,17.3838556,2.994011976,25.49176356,61.45371912,152.136549,2.47562802,46.56672598,187.4326289,120.6750821,9,47,21,2,9_47_21_2,47_21_2
PS-9_047_21_05_26_19_18_44_3.csv,84.75852618,14.54451763,1.764705882,21.27457059,22.36335759,115.7527914,5.176002346,15.69653775,66.90658359,120.4488186,9,47,21,3,9_47_21_3,47_21_3
PS-9_048_21_06_06_10_05_05_0.csv,68.61251237,18.17839902,1.428571429,37.77252585,38.97126761,139.7749737,3.586616044,249.4766669,225.5213548,120.7846647,9,48,21,0,9_48_21_0,48_21_0
PS-9_048_21_06_06_10_05_05_1.csv,70.48687953,13.61037362,0.704225352,26.41063769,49.17697972,132.1600289,2.687436879,103.8514699,209.5488087,120.4425701,9,48,21,1,9_48_21_1,48_21_1
PS-9_048_21_06_06_10_05_05_2.csv,70.2209474,19.36515423,2.836879433,35.78325755,38.04231297,278.5260037,7.321479215,359.766702,234.7697633,120.0406603,9,48,21,2,9_48_21_2,48_21_2
PS-9_048_21_06_06_10_05_05_3.csv,69.49126719,15.68491831,1.428571429,25.24062238,37.3153737,183.9220339,4.928854133,30.52788089,174.9542896,120.6103993,9,48,21,3,9_48_21_3,48_21_3
PS-9_049_21_06_06_10_23_56_0.csv,81.97317049,58.61066721,21.60493827,92.59887136,344.3637798,1282.431383,3.724060016,461.2118261,974.2449873,120.4989389,9,49,21,0,9_49_21_0,49_21_0
PS-9_049_21_06_06_10_23_56_1.csv,82.86944465,33.45612605,13.85542169,47.28884619,87.40806726,432.0382626,4.942773318,236.404563,369.4947215,120.5117125,9,49,21,1,9_49_21_1,49_21_1
PS-9_049_21_06_06_10_23_56_2.csv,80.54829768,40.57821214,20.625,44.34992117,369.370587,621.7681041,1.683317855,100.5759008,40.22602459,120.0684086,9,49,21,2,9_49_21_2,49_21_2
PS-9_049_21_06_06_10_23_56_3.csv,82.57282307,42.89649223,17.57575758,56.33947289,404.507628,950.2260285,2.349092978,177.6728582,503.3377113,120.6237947,9,49,21,3,9_49_21_3,49_21_3
PS-9_049_21_06_06_10_23_56_4.csv,82.58091848,35.22437953,19.51219512,48.65164815,300.3507775,794.1705417,2.644143452,235.3068516,130.2586535,120.2183112,9,49,21,4,9_49_21_4,49_21_4
PS-9_049_21_06_06_10_23_56_5.csv,83.31361736,37.84400338,15.6626506,49.0862152,340.4520633,833.8791207,2.449329027,265.6238987,126.4869575,120.3429938,9,49,21,5,9_49_21_5,49_21_5
PS-9_050_21_06_06_12_55_21_0.csv,79.50373123,51.58734742,22.07792208,92.32192268,484.9482833,2865.465097,5.908805528,2436.541817,5135.81288,120.6328546,9,50,21,0,9_50_21_0,50_21_0
PS-9_050_21_06_06_12_55_21_1.csv,82.13325777,38.56999941,22.56097561,43.70318821,218.7943884,277.0289771,1.266161253,212.625448,225.622931,120.1392156,9,50,21,1,9_50_21_1,50_21_1
PS-9_050_21_06_06_12_55_21_2.csv,81.54561117,44.75607915,14.375,95.16762005,469.9493621,978.2799282,2.081670936,1487.839379,2512.774805,120.6658426,9,50,21,2,9_50_21_2,50_21_2
PS-9_051_21_06_06_13_29_07_0.csv,75.14648437,29.33211213,7.236842105,47.29823112,197.2241697,643.9039793,3.264833008,193.9732696,729.0041652,120.5507325,9,51,21,0,9_51_21_0,51_21_0
PS-9_051_21_06_06_13_29_07_1.csv,79.95855763,26.50534301,9.259259259,45.81381177,196.0507396,455.4901495,2.323327881,64.8353232,198.3843829,120.5144077,9,51,21,1,9_51_21_1,51_21_1
PS-9_051_21_06_06_13_29_07_2.csv,79.02195876,30.47443425,8.75,48.31865315,187.6213694,474.2248435,2.527563065,157.5544038,251.2695265,120.0296147,9,51,21,2,9_51_21_2,51_21_2
PS-9_051_21_06_06_13_29_07_3.csv,73.74008791,39.61835081,14.66666667,56.71365782,355.6024054,620.5664678,1.745113245,10.9929781,457.2206201,120.4326572,9,51,21,3,9_51_21_3,51_21_3
PS-9_052_21_06_06_15_30_00_0.csv,71.02111428,43.6649845,22.91666667,56.66031789,249.5521833,646.4820782,2.590568712,232.1796102,285.5314004,120.2048675,9,52,21,0,9_52_21_0,52_21_0
PS-9_052_21_06_06_15_30_00_1.csv,69.46594903,41.68242049,22.69503546,51.69956129,286.8147433,319.516847,1.11401821,390.6635452,92.09202543,120.6787989,9,52,21,1,9_52_21_1,52_21_1
PS-9_052_21_06_06_15_30_00_2.csv,69.43359375,30.33384837,8.571428571,38.35551258,141.4224905,425.6254157,3.009602039,14.65806416,30.90213646,120.7937323,9,52,21,2,9_52_21_2,52_21_2
PS-9_052_21_06_06_15_30_00_3.csv,68.39023454,35.67230198,14.38848921,42.51062685,152.0521728,303.4054249,1.995403416,184.9930826,159.5570755,120.6610995,9,52,21,3,9_52_21_3,52_21_3
PS-9_053_21_06_06_15_57_06_0.csv,76.27682544,38.96306719,16.33986928,50.51666764,519.4409179,738.6185553,1.421949118,658.5847073,242.9728729,120.2539168,9,53,21,0,9_53_21_0,53_21_0
PS-9_053_21_06_06_15_57_06_1.csv,76.34243121,34.09121866,12.41830065,45.45177557,187.0263305,671.2716291,3.589182483,248.8452765,167.9845471,120.0298387,9,53,21,1,9_53_21_1,53_21_1
PS-9_053_21_06_06_15_57_06_2.csv,78.09395973,42.04292883,19.87179487,52.79039814,295.8990611,701.13635,2.369511912,376.3078134,670.341998,120.2621509,9,53,21,2,9_53_21_2,53_21_2
PS-9_053_21_06_06_15_57_06_3.csv,78.03251813,24.64651188,5.095541401,33.54407379,99.44064929,217.551386,2.187751061,30.5203781,39.81444972,120.1154696,9,53,21,3,9_53_21_3,53_21_3
PS-9_054_21_06_06_18_30_23_0.csv,79.11792063,43.47773647,22.64150943,54.34266094,319.0564602,647.6836716,2.029997046,253.5825915,341.5181691,120.3164278,9,54,21,0,9_54_21_0,54_21_0
PS-9_054_21_06_06_18_30_23_1.csv,76.14334367,34.7905025,14.19354839,45.38507449,225.3329016,270.1152603,1.198738659,25.50727285,214.9765708,120.2837428,9,54,21,1,9_54_21_1,54_21_1
PS-9_054_21_06_06_18_30_23_2.csv,77.39768803,46.92939435,24.20382166,54.28895532,554.9371904,507.8635744,0.915173074,164.2497689,140.430774,120.7534204,9,54,21,2,9_54_21_2,54_21_2
PS-9_055_21_06_06_19_08_54_0.csv,75.29244528,48.76452537,26.97368421,66.22882106,622.0216296,707.7608105,1.137839549,314.5284263,202.318412,120.3282804,9,55,21,0,9_55_21_0,55_21_0
PS-9_055_21_06_06_19_08_54_1.csv,72.5148874,52.75431647,27.08333333,93.77238618,341.4569194,2205.664505,6.459568923,877.1988104,2964.125364,120.3334092,9,55,21,1,9_55_21_1,55_21_1
PS-9_055_21_06_06_19_08_54_2.csv,74.39247788,47.73738839,26,74.72319067,693.78947,2594.066529,3.738982272,195.611544,197.9467104,120.0777479,9,55,21,2,9_55_21_2,55_21_2
PS-9_055_21_06_06_19_08_54_3.csv,77.35465648,53.74292545,25.97402597,79.07220735,367.8717381,1421.659275,3.864551494,542.9065672,632.3032028,120.1791139,9,55,21,3,9_55_21_3,55_21_3
PS-9_056_21_06_07_09_55_18_0.csv,80.32347577,48.14934628,27.5,57.7781458,601.442303,511.239247,0.850022096,263.3714885,443.7096616,120.2918298,9,56,21,0,9_56_21_0,56_21_0
PS-9_056_21_06_07_09_55_18_1.csv,82.81602927,35.29481838,16.36363636,56.1074485,113.6081,874.0194359,7.693284513,201.9100103,256.3850667,120.1780107,9,56,21,1,9_56_21_1,56_21_1
PS-9_056_21_06_07_09_55_18_2.csv,79.45590227,41.23301939,17.61006289,58.95348478,314.8958517,964.3050215,3.062298268,95.63869776,592.8186948,120.0190617,9,56,21,2,9_56_21_2,56_21_2
PS-9_056_21_06_07_09_55_18_3.csv,81.91374622,31.77790524,10.36585366,47.82225233,185.8788108,409.0371898,2.200558461,163.9460218,91.94295921,120.5838561,9,56,21,3,9_56_21_3,56_21_3
PS-9_056_21_06_07_09_55_18_4.csv,80.55150457,40.74467632,17.68292683,82.806975,293.8750425,965.5459434,3.285566325,1777.420636,3189.142133,120.1998424,9,56,21,4,9_56_21_4,56_21_4
PS-9_056_21_06_07_09_55_18_5.csv,83.92469303,39.47891281,15.56886228,66.76580508,188.2504391,415.9308775,2.209455019,378.554238,542.3564934,120.6131454,9,56,21,5,9_56_21_5,56_21_5
PS-9_056_21_06_07_09_55_18_6.csv,81.11386225,48.44045116,19.01840491,60.72879369,302.12858,480.0897798,1.589024712,643.2217151,535.363597,120.3215368,9,56,21,6,9_56_21_6,56_21_6
PS-9_057_21_06_07_10_09_31_0.csv,69.03552561,29.4490292,8.633093525,48.76461878,186.9993294,1105.256691,5.910484785,138.5462024,186.116374,120.2201633,9,57,21,0,9_57_21_0,57_21_0
PS-9_057_21_06_07_10_09_31_1.csv,69.41414012,33.59266097,11.42857143,39.28452346,153.2531014,342.2109135,2.232978715,96.90815429,58.46129774,120.3049382,9,57,21,1,9_57_21_1,57_21_1
PS-9_057_21_06_07_10_09_31_2.csv,70.11144644,32.51221225,13.28671329,48.86609265,145.3188464,485.4176627,3.340362759,238.9364433,115.0484933,120.8376338,9,57,21,2,9_57_21_2,57_21_2
PS-9_057_21_06_07_10_09_31_3.csv,68.82606846,32.82448511,12.23021583,46.12335589,226.5391669,720.528176,3.180589855,28.01303227,346.0762206,120.5658256,9,57,21,3,9_57_21_3,57_21_3
PS-9_057_21_06_07_10_09_31_4.csv,67.93837728,36.57283673,16.66666667,52.37226521,193.7985302,615.2597897,3.174739195,603.2407734,221.9143122,120.4210306,9,57,21,4,9_57_21_4,57_21_4
PS-9_058_21_06_07_12_40_32_0.csv,73.48945395,33.49747662,17.12328767,56.15796813,216.1376174,295.8644298,1.368870599,184.8736227,861.3950514,120.7329687,9,58,21,0,9_58_21_0,58_21_0
PS-9_058_21_06_07_12_40_32_1.csv,74.73241373,24.65873553,6,30.4067034,105.3738866,161.2524968,1.530288973,105.6876581,29.47158962,120.0338928,9,58,21,1,9_58_21_1,58_21_1
PS-9_058_21_06_07_12_40_32_2.csv,75.66321509,30.77426871,9.933774834,48.73297066,72.42256387,949.9524538,13.11680232,171.9954296,397.8048937,120.1228048,9,58,21,2,9_58_21_2,58_21_2
PS-9_058_21_06_07_12_40_32_3.csv,75.17381953,27.15990375,9.271523179,38.22703333,69.62598692,285.9445872,4.10686584,177.3860463,275.4511937,120.2584968,9,58,21,3,9_58_21_3,58_21_3
PS-9_058_21_06_07_12_40_32_4.csv,73.91832644,27.77272658,9.395973154,36.1055451,153.4285241,307.1862995,2.002145958,56.3195334,174.0711939,120.743815,9,58,21,4,9_58_21_4,58_21_4
PS-9_060_21_06_07_15_43_04_0.csv,74.89872629,35.6219703,12.66666667,57.44227057,202.4581531,836.0089996,4.129292829,186.5088069,755.2893149,120.75179,9,60,21,0,9_60_21_0,60_21_0
PS-9_060_21_06_07_15_43_04_1.csv,74.26757812,31.50851822,12.83783784,36.97926896,195.3786932,473.8339649,2.425207975,67.33427697,148.3496333,120.2504809,9,60,21,1,9_60_21_1,60_21_1
PS-9_060_21_06_07_15_43_04_2.csv,75.08392457,30.17107014,10.59602649,38.33800332,86.37303016,377.0499165,4.365366316,64.63708079,77.23868912,120.2164916,9,60,21,2,9_60_21_2,60_21_2
PS-9_061_21_06_07_16_14_13_0.csv,69.23029439,49.86794003,30.21582734,70.87115379,567.9311699,1227.313006,2.161024207,408.8317999,534.301661,120.0520928,9,61,21,0,9_61_21_0,61_21_0
PS-9_061_21_06_07_16_14_13_1.csv,72.77064658,53.44915929,30.40540541,80.85605001,414.904631,1084.82969,2.614648304,1235.056349,482.2348271,120.7329864,9,61,21,1,9_61_21_1,61_21_1
PS-9_061_21_06_07_16_14_13_2.csv,70.32595848,55.07454622,28.36879433,76.50230951,401.2403031,2203.149219,5.49084726,564.7329669,514.5751858,120.4019603,9,61,21,2,9_61_21_2,61_21_2
PS-9_061_21_06_07_16_14_13_3.csv,72.42463609,53.24316503,28.08219178,68.93261369,701.5675315,1590.52656,2.267104005,79.75938159,269.7533252,120.5653587,9,61,21,3,9_61_21_3,61_21_3
PS-9_061_21_06_07_16_14_13_4.csv,70.8846773,51.88317353,24.11347518,71.41476346,467.2306284,946.8276471,2.026467422,751.3672942,308.5074628,120.0299095,9,61,21,4,9_61_21_4,61_21_4
PS-9_062_21_06_07_18_37_13_0.csv,69.4992724,47.22351007,25.89928058,71.43277941,254.1211934,1409.510082,5.54660579,660.4142586,834.1402516,120.6607251,9,62,21,0,9_62_21_0,62_21_0
PS-9_062_21_06_07_18_37_13_1.csv,71.42715018,50.81854141,27.08333333,70.39141451,369.3681668,679.8823939,1.840663205,1012.046909,447.2222432,120.3604129,9,62,21,1,9_62_21_1,62_21_1
PS-9_062_21_06_07_18_37_13_2.csv,68.67546538,53.13040029,27.3381295,79.73455882,617.7285332,1760.554438,2.850045519,866.528716,672.5129046,120.7404218,9,62,21,2,9_62_21_2,62_21_2
PS-9_062_21_06_07_18_37_13_3.csv,71.95224788,55.45256888,28.67132867,90.67361854,699.0113407,1165.365901,1.667163081,805.2977813,1452.085684,120.5142228,9,62,21,3,9_62_21_3,62_21_3
PS-9_062_21_06_07_18_37_13_4.csv,73.82941814,47.06872598,22.44897959,87.99640406,347.077428,1236.017116,3.561214347,1148.80028,3545.455176,120.5109079,9,62,21,4,9_62_21_4,62_21_4
PS-9_062_21_06_07_18_37_13_5.csv,73.66275678,49.85065479,25.67567568,79.34844646,510.2288259,1438.107207,2.81855343,995.0167579,1201.753868,120.5588077,9,62,21,5,9_62_21_5,62_21_5
PS-9_063_21_06_07_19_08_02_0.csv,74.70703125,57.72128574,32.87671233,100.6689504,654.1631363,1656.464271,2.532188348,3173.762944,2575.188189,120.3501791,9,63,21,0,9_63_21_0,63_21_0
PS-9_063_21_06_07_19_08_02_1.csv,80.88524001,44.0375108,22.36024845,65.77674762,576.0292546,1026.249552,1.781592765,1126.195099,1105.299166,120.0878038,9,63,21,1,9_63_21_1,63_21_1
PS-9_063_21_06_07_19_08_02_2.csv,82.09139224,37.80107161,17.07317073,47.56461532,284.0511895,831.0640142,2.925754389,184.3009666,49.38741795,120.2557945,9,63,21,2,9_63_21_2,63_21_2
PS-9_063_21_06_07_19_08_02_3.csv,81.53511222,37.84238917,22.08588957,50.90512963,269.1107763,414.8907727,1.541709992,183.3990843,491.4562133,120.2902791,9,63,21,3,9_63_21_3,63_21_3
PS-9_064_21_06_08_09_32_40_0.csv,83.64749405,44.19066292,22.15568862,58.26667809,340.6955397,1091.879524,3.204854179,120.4404066,814.1969333,120.2151697,9,64,21,0,9_64_21_0,64_21_0
PS-9_064_21_06_08_09_32_40_1.csv,83.78296419,28.28224718,8.383233533,44.99945536,204.7586318,655.8067128,3.202828165,514.4602776,320.9446295,120.0391222,9,64,21,1,9_64_21_1,64_21_1
PS-9_064_21_06_08_09_32_40_2.csv,85.26488851,24.2439638,6.432748538,37.31365917,94.20865322,265.1673503,2.814681467,142.9361241,142.3998189,120.1383063,9,64,21,2,9_64_21_2,64_21_2
PS-9_064_21_06_08_09_32_40_3.csv,86.51340847,23.21922733,6.358381503,29.60646367,62.95118207,133.9616628,2.12802458,31.27528289,75.31485417,120.6486884,9,64,21,3,9_64_21_3,64_21_3
PS-9_065_21_06_08_10_10_35_0.csv,72.31887564,49.61676332,31.03448276,55.0869611,473.6533386,378.0924159,0.798247125,145.4566827,190.8844244,120.5698513,9,65,21,0,9_65_21_0,65_21_0
PS-9_065_21_06_08_10_10_35_1.csv,73.31662632,48.47318236,28.57142857,73.0434006,298.8861088,1208.293564,4.042655475,691.3928673,908.5511919,120.0333309,9,65,21,1,9_65_21_1,65_21_1
PS-9_065_21_06_08_10_10_35_2.csv,74.73864587,43.22356606,19.20529801,48.96423323,265.1828701,314.8386232,1.187250983,283.0667731,47.64455097,120.3110903,9,65,21,2,9_65_21_2,65_21_2
PS-9_065_21_06_08_10_10_35_3.csv,74.80159183,40.69904484,15.68627451,72.20261715,463.905375,685.8639252,1.478456518,62.53136238,1282.770445,120.6137903,9,65,21,3,9_65_21_3,65_21_3
PS-9_065_21_06_08_10_10_35_4.csv,73.33203446,49.97622621,31.75675676,64.25517531,491.243361,766.6057553,1.560541711,217.1665596,1104.622318,120.399189,9,65,21,4,9_65_21_4,65_21_4
PS-9_065_21_06_08_10_10_35_5.csv,78.5849353,48.97653432,24.51612903,65.71197051,238.9637586,639.85313,2.677615777,281.3724187,440.5667009,120.5925268,9,65,21,5,9_65_21_5,65_21_5
PS-9_066_21_06_08_13_01_31_0.csv,82.6171875,46.78336499,21.68674699,63.30032746,486.2830658,781.4571441,1.607000529,140.5016196,609.3414039,120.0859869,9,66,21,0,9_66_21_0,66_21_0
PS-9_066_21_06_08_13_01_31_1.csv,83.57957802,40.41833774,18.6746988,67.97670917,256.0905173,614.6482258,2.40012099,198.4523009,835.3460159,120.2196618,9,66,21,1,9_66_21_1,66_21_1
PS-9_066_21_06_08_13_01_31_2.csv,86.89715138,30.4700285,11.11111111,64.67380262,267.7149561,583.6439652,2.180094731,128.5075177,586.1043622,120.2223142,9,66,21,2,9_66_21_2,66_21_2
PS-9_066_21_06_08_13_01_31_3.csv,83.5021591,36.58508321,15.47619048,52.20859038,273.0801295,774.102124,2.834706887,298.9072961,373.0724931,120.6688961,9,66,21,3,9_66_21_3,66_21_3
PS-9_066_21_06_08_13_01_31_4.csv,85.3713115,31.41495498,8.139534884,42.20728596,175.4542985,354.3037413,2.019350591,144.6716336,260.4082352,120.665081,9,66,21,4,9_66_21_4,66_21_4
PS-9_066_21_06_08_13_01_31_5.csv,86.57226563,35.42200878,13.87283237,44.01348421,195.8201064,314.3575602,1.605338523,120.5600674,129.8839488,120.5772495,9,66,21,5,9_66_21_5,66_21_5
PS-9_067_21_06_08_13_22_53_0.csv,73.72434399,52.38890751,13.57142857,76.43294242,409.3814789,2585.018817,6.314449848,2579.290236,3563.831253,120.3139088,9,67,21,0,9_67_21_0,67_21_0
PS-9_067_21_06_08_13_22_53_1.csv,73.828125,22.71460499,4.081632653,41.72615489,89.90147811,133.2587407,1.482275303,217.0405443,316.2851632,120.4560718,9,67,21,1,9_67_21_1,67_21_1
PS-9_067_21_06_08_13_22_53_2.csv,73.38867188,25.41438359,4.054054054,40.75217264,56.78469764,148.2253969,2.610305295,93.56992204,27.43576711,120.5727844,9,67,21,2,9_67_21_2,67_21_2
PS-9_067_21_06_08_13_22_53_3.csv,72.94921875,19.39827936,2.721088435,25.80152688,71.53302878,158.5697624,2.216734915,38.88555685,43.10046965,120.2724598,9,67,21,3,9_67_21_3,67_21_3
PS-9_067_21_06_08_13_22_53_4.csv,73.2168503,22.17217374,5.405405405,31.10656272,93.18689393,122.7845575,1.317616162,114.5993194,78.47514913,120.0508636,9,67,21,4,9_67_21_4,67_21_4
PS-9_069_21_06_09_12_34_17_0.csv,70.80980118,29.51512969,8.450704225,41.61245794,229.3436505,608.3212031,2.652444058,146.3439477,150.7339564,120.3185073,9,69,21,0,9_69_21_0,69_21_0
PS-9_069_21_06_09_12_34_17_1.csv,71.67112502,25.68565159,6.944444444,37.11610737,116.0017766,325.7267569,2.807946278,55.79981185,518.7352737,120.4751864,9,69,21,1,9_69_21_1,69_21_1
PS-9_069_21_06_09_12_34_17_2.csv,71.20044106,22.43587204,6.993006993,32.74520855,150.5457085,443.3906197,2.945222578,74.57080612,86.17571124,120.8054581,9,69,21,2,9_69_21_2,69_21_2
PS-9_069_21_06_09_12_34_17_3.csv,71.87404367,21.83782806,6.25,27.92654148,68.71641312,157.1541297,2.286995531,34.62156393,102.1778571,120.0857344,9,69,21,3,9_69_21_3,69_21_3
PS-9_069_21_06_09_12_34_17_4.csv,72.3783775,22.70355837,5.517241379,29.69958676,100.1050592,244.8652894,2.446083059,40.21556005,90.75922615,120.658251,9,69,21,4,9_69_21_4,69_21_4
PS-9_070_21_06_15_20_00_29_0.csv,73.828125,23.81083698,4.697986577,35.73055345,61.28829496,170.0948414,2.775323436,32.35299942,172.4060012,120.5980877,9,70,21,0,9_70_21_0,70_21_0
PS-9_070_21_06_15_20_00_29_1.csv,74.70703125,13.37625598,0.666666667,23.60716218,25.67687065,106.1509036,4.134105947,91.45369025,99.71113439,120.0173785,9,70,21,1,9_70_21_1,70_21_1
PS-9_070_21_06_15_20_00_29_2.csv,74.70703125,11.04349972,0,22.46681788,16.56467231,206.2792757,12.45296446,55.75400939,35.32935597,120.3879904,9,70,21,2,9_70_21_2,70_21_2
PS-9_070_21_06_15_20_00_29_3.csv,75.5859375,10.35504794,0.662251656,20.44792885,14.69090782,77.50085505,5.275429946,76.34535172,39.60581015,120.0314596,9,70,21,3,9_70_21_3,70_21_3
PS-9_073_21_06_09_10_06_04_0.csv,79.75092266,47.05987594,20,63.2564637,200.7999023,943.3877898,4.69814865,273.7268633,188.9324979,120.1114076,9,73,21,0,9_73_21_0,73_21_0
PS-9_073_21_06_09_10_06_04_1.csv,84.01771057,33.82251514,12.5748503,43.5795221,185.8005373,406.4756597,2.187699054,129.3901272,87.13479265,120.0343692,9,73,21,1,9_73_21_1,73_21_1
PS-9_073_21_06_09_10_06_04_2.csv,80.53626839,32.39835584,11.72839506,49.58005325,221.1825369,704.3185543,3.184331657,290.9755935,368.5078462,120.5019483,9,73,21,2,9_73_21_2,73_21_2
PS-9_073_21_06_09_10_06_04_3.csv,79.79695125,37.40107003,10.6918239,40.32082704,494.7765621,342.036792,0.691295462,46.15127078,30.56508524,120.0824256,9,73,21,3,9_73_21_3,73_21_3
PS-9_073_21_06_09_10_06_04_4.csv,80.1828082,34.57832998,15.72327044,51.13401706,133.782798,386.2092935,2.886838214,121.6035747,187.6236137,120.3481529,9,73,21,4,9_73_21_4,73_21_4
PS-9_075_21_06_09_13_01_29_0.csv,77.67685757,55.67709816,29.29936306,64.80803311,628.1165954,1091.544489,1.737805523,249.972817,84.13618311,120.3871703,9,75,21,0,9_75_21_0,75_21_0
PS-9_075_21_06_09_13_01_29_1.csv,78.76954184,48.79778369,26.08695652,68.03913842,475.1998598,1118.441685,2.353623768,366.5002204,672.7533525,120.6178685,9,75,21,1,9_75_21_1,75_21_1
PS-9_075_21_06_09_13_01_29_2.csv,78.22265625,43.43519355,16.98113208,58.83161357,263.9477104,642.0515974,2.432495423,393.3657879,133.0690106,120.1424043,9,75,21,2,9_75_21_2,75_21_2
PS-9_078_21_06_09_18_24_20_0.csv,61.27465137,48.33985079,26.19047619,89.05734971,185.8294275,1862.382808,10.02200154,498.6347648,708.0346143,120.5263401,9,78,21,0,9_78_21_0,78_21_0
PS-9_078_21_06_09_18_24_20_1.csv,57.12890625,32.20528853,8.547008547,60.93930938,155.615352,398.6808733,2.561963637,195.1069292,1228.943798,120.4269074,9,78,21,1,9_78_21_1,78_21_1
PS-9_078_21_06_09_18_24_20_2.csv,57.48777496,49.43290462,22.22222222,72.17433241,359.3577688,1263.731325,3.516638389,508.796285,641.793763,120.6428349,9,78,21,2,9_78_21_2,78_21_2
PS-9_078_21_06_09_18_24_20_3.csv,58.85045816,40.18233686,16.52892562,88.46658244,130.4606029,1404.794709,10.76796119,1351.233267,739.3866642,120.9539462,9,78,21,3,9_78_21_3,78_21_3
PS-9_078_21_06_09_18_24_20_4.csv,58.49572537,54.16148353,27.5,71.96361454,367.2003273,1161.445989,3.162976454,370.6964457,371.682998,121.0852957,9,78,21,4,9_78_21_4,78_21_4
PS-9_078_21_06_09_18_24_20_5.csv,56.53911037,51.11811723,24.78632479,80.43917279,425.1366459,1812.736717,4.263891938,645.9236722,919.5462515,120.371205,9,78,21,5,9_78_21_5,78_21_5
PS-9_078_21_06_09_18_24_20_6.csv,60.32223413,53.25893612,26.2295082,70.70197871,388.7837803,1079.505856,2.776622665,566.9683298,439.3642004,120.7786119,9,78,21,6,9_78_21_6,78_21_6
PS-9_079_21_06_09_19_07_48_0.csv,78.42751118,37.77697871,13.37579618,43.16969317,212.2652093,372.104537,1.753017078,137.5773771,55.1908657,120.5803416,9,79,21,0,9_79_21_0,79_21_0
PS-9_079_21_06_09_19_07_48_1.csv,79.04451602,36.4341936,14.46540881,55.42906699,382.691704,1122.788757,2.933924999,479.6867537,91.84509566,120.5066081,9,79,21,1,9_79_21_1,79_21_1
PS-9_079_21_06_09_19_07_48_2.csv,83.8544081,44.62468911,18.56287425,57.13837552,236.0785818,336.9623119,1.427331142,272.7580947,323.4086259,120.3585644,9,79,21,2,9_79_21_2,79_21_2
PS-9_079_21_06_09_19_07_48_3.csv,80.89250367,46.90976546,21.34146341,78.78314121,579.2720247,2129.832902,3.67674048,931.8976193,143.6055276,120.5086042,9,79,21,3,9_79_21_3,79_21_3
PS-9_079_21_06_09_19_07_48_4.csv,79.58510698,45.82755485,24.52830189,70.09453056,258.7831899,1184.061476,4.575496099,514.4589656,1381.907377,120.024204,9,79,21,4,9_79_21_4,79_21_4
PS-9_079_21_06_09_19_07_48_5.csv,82.03687998,37.12835405,14.02439024,52.77614093,276.5016214,521.2396262,1.885123218,167.9066258,60.80525029,120.6064817,9,79,21,5,9_79_21_5,79_21_5
PS-9_079_21_06_09_19_07_48_6.csv,82.7222892,31.48094983,9.696969697,50.69865424,113.9805935,271.444168,2.381494601,180.0298799,226.850247,120.2640075,9,79,21,6,9_79_21_6,79_21_6
PS-9_079_21_06_09_19_07_48_7.csv,82.38928321,35.73268831,16.86746988,41.79725223,318.0040253,269.2929111,0.846822334,79.36500851,84.12255115,120.4845383,9,79,21,7,9_79_21_7,79_21_7
PS-9_080_21_06_10_09_36_35_0.csv,81.83572471,46.88177045,23.7804878,53.76964167,361.9684719,730.7408071,2.01879684,97.41169459,533.1339206,120.491603,9,80,21,0,9_80_21_0,80_21_0
PS-9_080_21_06_10_09_36_35_1.csv,85.83479128,40.38499193,19.88304094,51.60829549,450.2930623,427.7525004,0.949942462,229.9979206,113.9815436,120.4395888,9,80,21,1,9_80_21_1,80_21_1
PS-9_080_21_06_10_09_36_35_2.csv,86.19118622,34.48773174,15.69767442,44.20644226,195.8248789,353.9559433,1.807512637,109.9270085,323.9226474,120.1683389,9,80,21,2,9_80_21_2,80_21_2
PS-9_080_21_06_10_09_36_35_3.csv,87.61164049,37.88885149,13.14285714,40.80093513,405.0671419,270.5485111,0.667910287,165.0659286,138.1054397,120.189556,9,80,21,3,9_80_21_3,80_21_3
PS-9_080_21_06_10_09_36_35_4.csv,83.26866989,41.32701318,22.89156627,51.13319239,355.546208,558.8297607,1.571750023,132.178042,88.61740893,120.0677403,9,80,21,4,9_80_21_4,80_21_4
PS-9_080_21_06_10_09_36_35_5.csv,86.50794629,33.35888633,15.51724138,39.77917608,154.6216487,550.0566394,3.55743613,58.63466094,69.04784419,120.5829555,9,80,21,5,9_80_21_5,80_21_5
PS-9_081_21_06_11_16_17_50_0.csv,76.15605202,38.93798927,14.66666667,93.09215822,294.0939243,1791.309118,6.09094228,2174.747156,2310.149973,120.7701428,9,81,21,0,9_81_21_0,81_21_0
PS-9_081_21_06_11_16_17_50_1.csv,79.83996489,23.61626406,3.144654088,27.66907859,125.019493,155.6280353,1.244830159,31.40226379,62.25301297,120.0005512,9,81,21,1,9_81_21_1,81_21_1
PS-9_081_21_06_11_16_17_50_2.csv,79.36721604,25.35819077,5.660377358,34.0050046,134.1854412,253.6790484,1.890510969,81.66360161,207.9677757,120.5400903,9,81,21,2,9_81_21_2,81_21_2
PS-9_011_45_05_20_11_37_59_0.csv,76.02539062,53.73715638,26.62337662,69.46489089,306.641161,1146.707781,3.739575527,202.0896785,670.8034286,120.2219699,9,11,45,0,9_11_45_0,11_45_0
PS-9_011_45_05_20_11_37_59_1.csv,73.96242185,48.3352486,28.8590604,60.1430045,352.5111423,667.9491781,1.894831391,252.9770257,364.4682016,120.2813611,9,11,45,1,9_11_45_1,11_45_1
PS-9_012_45_05_20_12_02_42_0.csv,79.54101562,41.71563309,19.25465839,46.15929644,386.1708608,351.2745071,0.909634938,46.29404345,114.5997943,120.4932344,9,12,45,0,9_12_45_0,12_45_0
PS-9_012_45_05_20_12_02_42_1.csv,80.27321729,33.7665438,12.88343558,50.93557617,243.1716225,492.9760801,2.027276354,210.6123181,230.6043808,120.6471442,9,12,45,1,9_12_45_1,12_45_1
PS-9_012_45_05_20_12_02_42_2.csv,78.67242631,45.21304285,22.78481013,65.76714696,343.9836748,440.536663,1.280690612,230.3448236,747.0862511,120.38392,9,12,45,2,9_12_45_2,12_45_2
PS-9_014_45_05_20_14_17_36_0.csv,76.41039448,49.55670014,21.05263158,78.76429539,359.5439874,522.5154304,1.453272614,248.6141768,767.8694707,120.0305794,9,14,45,0,9_14_45_0,14_45_0
PS-9_014_45_05_20_14_17_36_1.csv,77.78320312,42.29874599,17.94871795,72.46880552,341.4915982,834.000857,2.442229506,252.3480708,344.4581212,120.7050622,9,14,45,1,9_14_45_1,14_45_1
PS-9_028_45_05_22_13_19_26_0.csv,75.11022587,54.05477048,32.45033113,76.33701655,622.4067758,937.6772424,1.506534438,1049.524311,672.0039272,120.4818245,9,28,45,0,9_28_45_0,28_45_0
PS-9_028_45_05_22_13_19_26_1.csv,72.07731509,54.98669025,27.08333333,76.89943077,481.1409957,1414.511689,2.939910964,673.5151365,935.2678766,120.1307218,9,28,45,1,9_28_45_1,28_45_1
PS-9_028_45_05_22_13_19_26_2.csv,73.21984174,51.99750047,31.97278912,75.15396562,295.6320422,2550.651245,8.627790227,1231.401455,809.2568313,120.6029742,9,28,45,2,9_28_45_2,28_45_2
PS-9_034_45_05_24_20_08_10_0.csv,81.51679096,44.9700583,19.27710843,50.35265103,382.5279475,621.1873441,1.62390055,145.8714919,77.38057146,120.4962009,9,34,45,0,9_34_45_0,34_45_0
PS-9_034_45_05_24_20_08_10_1.csv,80.48480077,43.08418548,17.79141104,52.02734396,483.2999251,481.6083405,0.996499928,214.5506281,216.909184,120.0329969,9,34,45,1,9_34_45_1,34_45_1
PS-9_034_45_05_24_20_08_10_2.csv,82.03651293,26.04098391,5.454545455,37.88333983,131.758436,223.0423745,1.692812858,38.85396238,253.5524777,120.191699,9,34,45,2,9_34_45_2,34_45_2
PS-9_039_45_05_25_19_52_58_0.csv,79.19592131,46.54569641,21.3836478,66.62187687,267.7386791,636.4482511,2.377124789,461.4202529,258.0077062,120.3119567,9,39,45,0,9_39_45_0,39_45_0
PS-9_039_45_05_25_19_52_58_1.csv,79.05531038,33.636853,13.20754717,49.06458827,198.3922791,614.1797345,3.09578446,219.1191273,397.4516347,120.099211,9,39,45,1,9_39_45_1,39_45_1
PS-9_039_45_05_25_19_52_58_2.csv,78.70482974,46.99844688,27.84810127,66.9905622,556.2804891,1295.728787,2.329272395,806.2686181,1200.163914,120.5952386,9,39,45,2,9_39_45_2,39_45_2
PS-9_004_45_05_21_16_33_43_0.csv,70.33125056,53.53453205,27.97202797,80.8448438,323.6993001,2234.009175,6.901495229,332.7080714,406.2252898,120.5571183,9,4,45,0,9_4_45_0,4_45_0
PS-9_004_45_05_21_16_33_43_1.csv,68.28098333,44.87224881,18.84057971,79.52173367,316.7619395,1160.248175,3.662839597,668.6165258,799.9340522,120.2321458,9,4,45,1,9_4_45_1,4_45_1
PS-9_004_45_05_21_16_33_43_2.csv,75.03672253,32.32627151,12.41830065,52.77822791,190.2892363,1071.976025,5.633403368,135.8260849,277.8922365,120.5581277,9,4,45,2,9_4_45_2,4_45_2
PS-9_046_45_05_26_19_29_08_0.csv,78.27864605,31.59901731,11.39240506,52.11213347,104.8901663,1004.21157,9.573934382,338.7694176,138.6821037,120.0012737,9,46,45,0,9_46_45_0,46_45_0
PS-9_046_45_05_26_19_29_08_1.csv,79.06676872,14.31606155,0.632911392,23.73687324,52.74870267,99.3219314,1.882926525,86.76708221,94.40465572,120.5185492,9,46,45,1,9_46_45_1,46_45_1
PS-9_046_45_05_26_19_29_08_2.csv,81.87981922,19.65163629,3.636363636,27.61662089,110.8689799,175.5887765,1.583750267,34.95932284,107.7662467,120.452368,9,46,45,2,9_46_45_2,46_45_2
PS-9_054_45_06_06_19_25_00_0.csv,80.83880363,57.48272448,28.83435583,82.21523396,358.4710626,1165.067382,3.250101622,302.8139926,478.7736541,120.3509397,9,54,45,0,9_54_45_0,54_45_0
PS-9_054_45_06_06_19_25_00_1.csv,81.8091701,55.66127815,33.13253012,84.92354831,627.1250671,1964.024433,3.131790669,856.5020685,732.4629854,120.2070514,9,54,45,1,9_54_45_1,54_45_1
PS-9_054_45_06_06_19_25_00_2.csv,81.16926805,42.82013081,22.28915663,71.98712111,616.99704,862.0328711,1.397142636,455.757613,851.5359509,120.1746417,9,54,45,2,9_54_45_2,54_45_2
PS-9_061_45_06_07_17_06_13_0.csv,72.67685097,55.05519369,37.16216216,78.97299821,575.3614077,1391.873967,2.41912987,421.3758816,788.0538782,120.605885,9,61,45,0,9_61_45_0,61_45_0
PS-9_061_45_06_07_17_06_13_1.csv,72.91380248,47.58688661,28.27586207,87.25693537,316.7773827,1211.855008,3.825573018,214.4500956,1853.866945,120.0079388,9,61,45,1,9_61_45_1,61_45_1
PS-9_061_45_06_07_17_06_13_2.csv,74.36665778,57.77322267,34,77.16176042,760.4883702,1232.004481,1.620017516,466.3287563,771.3870052,120.2529848,9,61,45,2,9_61_45_2,61_45_2
PS-9_062_45_06_07_19_35_28_0.csv,74.92926759,48.76818721,23.1292517,71.04837245,203.0506408,471.0006532,2.319621605,269.801758,829.5818758,120.0866559,9,62,45,0,9_62_45_0,62_45_0
PS-9_062_45_06_07_19_35_28_1.csv,72.08705955,54.14749766,28.67132867,84.81231438,379.4868527,1170.06168,3.083273297,763.5826809,1939.943282,120.3044873,9,62,45,1,9_62_45_1,62_45_1
PS-9_062_45_06_07_19_35_28_2.csv,68.11523437,49.15698724,28.26086957,85.40609469,370.5229814,1580.276052,4.264987952,1057.407521,1605.976151,120.233931,9,62,45,2,9_62_45_2,62_45_2
PS-9_081_45_06_11_16_56_17_0.csv,74.25779593,34.43357623,9.271523179,52.04243122,256.41227,813.6804846,3.17332897,32.05556133,289.9045274,120.6456287,9,81,45,0,9_81_45_0,81_45_0
PS-9_009_45_05_24_20_16_02_0.csv,81.73828125,39.87269033,23.63636364,66.06342794,253.9536858,1073.525342,4.227248519,246.4729629,466.1693901,120.6229008,9,9,45,0,9_9_45_0,9_45_0
PS-9_009_45_05_24_20_16_02_1.csv,78.99800047,45.12658271,22.64150943,54.03582428,247.8221126,778.2621514,3.140406412,853.6177784,284.0097111,120.3473354,9,9,45,1,9_9_45_1,9_45_1
PS-9_009_45_05_24_20_16_02_2.csv,81.07215296,43.07872169,20.48192771,63.08200457,425.0681758,462.2918069,1.087570967,240.0227754,920.9637306,120.4573826,9,9,45,2,9_9_45_2,9_45_2
PS-10_103_50_06_27_10_58_55_0.csv,74.28461016,31.8766886,10.73825503,41.75019211,180.0077046,358.0810168,1.989253836,270.915551,75.12806205,120.1235161,10,103,50,0,10_103_50_0,103_50_0
PS-10_103_50_06_27_10_58_55_1.csv,72.68759821,22.24534995,2.721088435,45.60959793,68.31245105,280.7259639,4.10944066,227.54899,1035.750477,120.0419661,10,103,50,1,10_103_50_1,103_50_1
PS-10_113_50_06_28_19_24_55_0.csv,77.73743121,33.46767452,9.615384615,42.71142874,177.2967832,379.5531085,2.140778314,129.5494718,174.2783641,120.5480352,10,113,50,0,10_113_50_0,113_50_0
PS-10_113_50_06_28_19_24_55_1.csv,79.02903552,37.05376308,14.46540881,51.79071211,342.5619348,962.9643677,2.811066467,290.0413161,173.8465813,120.4467428,10,113,50,1,10_113_50_1,113_50_1
PS-10_113_50_06_28_19_24_55_2.csv,78.96726182,26.0173128,8.176100629,30.96248988,121.7993892,124.3555816,1.020986906,45.53680631,193.2531037,120.4520834,10,113,50,2,10_113_50_2,113_50_2
PS-10_015_50_06_02_14_07_59_0.csv,71.97066759,36.77459046,15.38461538,57.43766091,154.3596762,296.6409797,1.921751761,245.8933596,72.14527933,120.0557696,10,15,50,0,10_15_50_0,15_50_0
PS-10_015_50_06_02_14_07_59_1.csv,71.62808605,39.06838696,13.88888889,48.0366002,234.2779996,419.1881415,1.789276595,340.3059997,129.7359239,120.4082874,10,15,50,1,10_15_50_1,15_50_1
PS-10_015_50_06_02_14_07_59_2.csv,72.29062053,35.29721828,14.28571429,46.70208887,241.0050776,484.5425624,2.010507692,467.15232,130.4064414,120.147578,10,15,50,2,10_15_50_2,15_50_2
PS-10_018_50_05_27_16_39_49_0.csv,77.05292634,50.81293962,27.92207792,71.51384444,283.5798313,976.2039938,3.44243097,742.0323521,651.5651107,120.4018186,10,18,50,0,10_18_50_0,18_50_0
PS-10_018_50_05_27_16_39_49_1.csv,84.16923742,48.57032442,25.74850299,68.271873,361.9580736,592.4134042,1.636690676,410.850638,500.7322756,120.5787234,10,18,50,1,10_18_50_1,18_50_1
PS-10_018_50_05_27_16_39_49_2.csv,84.81445312,40.3564659,19.04761905,82.50121645,120.5035894,569.6836125,4.727524013,53.75410778,596.9209927,120.6081911,10,18,50,2,10_18_50_2,18_50_2
PS-10_023_50_05_29_20_16_47_0.csv,78.21082442,33.57737321,13.37579618,47.62918047,153.8867636,473.0640204,3.074104681,122.1669987,506.6555146,120.1066311,10,23,50,0,10_23_50_0,23_50_0
PS-10_023_50_05_29_20_16_47_1.csv,76.03539588,39.13151156,16.55629139,65.78401332,295.8408997,1328.341975,4.490055215,848.7132685,348.2817334,120.2978023,10,23,50,1,10_23_50_1,23_50_1
PS-10_023_50_05_29_20_16_47_2.csv,79.50085834,37.24177859,14.9068323,54.53720067,274.0753938,653.413996,2.384066614,55.18833019,707.1774776,120.0169476,10,23,50,2,10_23_50_2,23_50_2
PS-10_002_50_05_28_13_29_06_0.csv,75.12575539,53.95840196,22.58064516,76.45208921,202.7368745,982.7279937,4.847307605,85.24645189,1286.049561,120.7223921,10,2,50,0,10_2_50_0,2_50_0
PS-10_002_50_05_28_13_29_06_1.csv,74.51133178,56.8090597,31.61290323,97.05372795,698.2660788,2845.174304,4.074627696,989.6575952,2859.806818,120.7013813,10,2,50,1,10_2_50_1,2_50_1
PS-10_002_50_05_28_13_29_06_2.csv,79.76555581,53.39949828,28.84615385,100.9159279,485.6046297,1943.791777,4.002827934,894.2393509,3784.922672,120.2038258,10,2,50,2,10_2_50_2,2_50_2
PS-10_025_50_05_31_11_04_01_0.csv,69.29332624,30.26702689,8.633093525,62.95529969,161.7351316,384.3605975,2.376481805,540.6132189,1003.112203,120.9101256,10,25,50,0,10_25_50_0,25_50_0
PS-10_025_50_05_31_11_04_01_1.csv,68.01334425,44.34571044,18.43971631,102.9064154,221.8944762,519.1225758,2.339502022,498.3725415,5867.704716,120.7688953,10,25,50,1,10_25_50_1,25_50_1
PS-10_025_50_05_31_11_04_01_2.csv,67.28926812,45.27298706,22.05882353,67.93205525,433.7224168,1142.306815,2.633727866,67.9164804,741.8693288,120.0945456,10,25,50,2,10_25_50_2,25_50_2
PS-10_027_50_05_30_20_02_47_0.csv,72.0336499,65.32187116,33.56164384,101.2738757,800.9178916,2181.241195,2.72342673,1144.314994,376.6206339,120.6656238,10,27,50,0,10_27_50_0,27_50_0
PS-10_027_50_05_30_20_02_47_1.csv,66.35694314,52.71584514,27.00729927,100.9381761,299.2758242,1258.290868,4.2044521,516.8338858,2863.679661,120.1561933,10,27,50,1,10_27_50_1,27_50_1
PS-10_027_50_05_30_20_02_47_2.csv,74.60130257,50.7522216,26.71232877,83.42342235,499.1514269,1373.507787,2.751685587,100.5236483,792.6437067,120.4426402,10,27,50,2,10_27_50_2,27_50_2
PS-10_028_50_05_29_13_30_42_0.csv,76.65792921,37.7570839,18.83116883,58.76612782,262.7942142,763.9601763,2.907066195,782.026254,451.1229359,120.1876448,10,28,50,0,10_28_50_0,28_50_0
PS-10_028_50_05_29_13_30_42_1.csv,74.13845386,33.69938736,13.24503311,55.9451607,171.1572811,644.4718094,3.765377699,334.089028,667.3064992,120.729067,10,28,50,1,10_28_50_1,28_50_1
PS-10_028_50_05_29_13_30_42_2.csv,74.92093617,38.17853191,19.86754967,59.37926297,306.5384186,1116.602296,3.642617786,441.5987741,259.1140036,120.411363,10,28,50,2,10_28_50_2,28_50_2
PS-10_031_50_05_31_14_28_30_0.csv,70.17746633,42.26672384,14.89361702,52.14739779,256.3393372,593.9522525,2.317054647,89.07414207,164.8516191,120.8307649,10,31,50,0,10_31_50_0,31_50_0
PS-10_031_50_05_31_14_28_30_1.csv,70.50480144,37.12012971,13.98601399,56.93669358,223.998981,1240.640095,5.538597046,179.5555071,174.1650291,120.6037543,10,31,50,1,10_31_50_1,31_50_1
PS-10_031_50_05_31_14_28_30_2.csv,74.14836222,29.64500167,7.382550336,41.88838421,200.8717504,433.1376524,2.156289531,273.2295559,237.186915,120.336926,10,31,50,2,10_31_50_2,31_50_2
PS-10_033_50_05_31_17_19_45_0.csv,71.9824819,49.1514995,25.51724138,76.10975355,635.0810306,1768.992382,2.78545933,1220.646106,843.4967809,120.8151108,10,33,50,0,10_33_50_0,33_50_0
PS-10_033_50_05_31_17_19_45_1.csv,71.48939527,60.32021099,35.17241379,96.10679425,481.7710524,2785.687456,5.782181064,743.6930889,1446.981476,120.3751603,10,33,50,1,10_33_50_1,33_50_1
PS-10_033_50_05_31_17_19_45_2.csv,71.12424336,47.97363008,27.08333333,66.27747582,228.2271484,1167.674765,5.116283376,1151.965218,567.2342695,120.1316194,10,33,50,2,10_33_50_2,33_50_2
PS-10_037_50_06_01_11_31_21_0.csv,72.36505379,44.45896564,22.60273973,70.32256245,308.3709542,1570.808796,5.093893491,377.0431274,136.809867,120.8521577,10,37,50,0,10_37_50_0,37_50_0
PS-10_037_50_06_01_11_31_21_1.csv,72.49350484,48.04798892,25.51724138,70.32362679,299.8504593,608.4680819,2.029238452,439.2174945,1103.863206,120.6083876,10,37,50,1,10_37_50_1,37_50_1
PS-10_037_50_06_01_11_31_21_2.csv,74.97417475,43.56272737,21.85430464,60.85975862,482.5432207,1106.088866,2.292206829,758.2515133,288.7127326,120.3500157,10,37,50,2,10_37_50_2,37_50_2
PS-10_040_50_06_01_20_00_00_0.csv,65.62172819,26.15884578,6.818181818,43.85370404,129.0587022,348.0115255,2.696536689,132.152307,497.6828837,120.2126801,10,40,50,0,10_40_50_0,40_50_0
PS-10_040_50_06_01_20_00_00_1.csv,63.75307668,31.73391167,10.76923077,49.95416758,273.774129,665.9227898,2.43238027,351.0535999,320.0546754,120.5240377,10,40,50,1,10_40_50_1,40_50_1
PS-10_040_50_06_01_20_00_00_2.csv,61.83964104,21.3443997,4,24.58499919,49.5700234,138.8996206,2.802089066,38.12306195,52.6218274,120.3769401,10,40,50,2,10_40_50_2,40_50_2
PS-10_040_50_06_01_20_00_00_3.csv,62.63235659,34.91013836,10.15625,61.92251003,157.4241543,832.2158544,5.286455931,751.1672476,656.2145571,120.5585544,10,40,50,3,10_40_50_3,40_50_3
PS-10_044_50_06_02_16_59_44_0.csv,74.41368724,41.11950073,21.47651007,70.45286455,417.2284317,818.5004716,1.961756221,758.468847,266.8080779,120.2844302,10,44,50,0,10_44_50_0,44_50_0
PS-10_044_50_06_02_16_59_44_1.csv,74.75524925,41.71757938,18.95424837,62.39291756,180.3972334,705.4262628,3.910405107,448.3974492,1008.91802,120.777874,10,44,50,1,10_44_50_1,44_50_1
PS-10_044_50_06_02_16_59_44_2.csv,74.72461778,28.92171683,8.666666667,38.61601273,96.8173844,619.2085536,6.395633981,20.11618495,132.8228123,120.1683276,10,44,50,2,10_44_50_2,44_50_2
PS-10_045_50_06_02_17_21_11_0.csv,82.51855588,31.02304176,6.666666667,43.38274324,225.4467291,431.656836,1.914673314,112.8403335,219.9787619,120.5430801,10,45,50,0,10_45_50_0,45_50_0
PS-10_045_50_06_02_17_21_11_1.csv,82.92614463,32.75380486,6.626506024,49.20079451,97.35763432,246.3023346,2.529871811,148.9009762,159.5299722,120.435464,10,45,50,1,10_45_50_1,45_50_1
PS-10_045_50_06_02_17_21_11_2.csv,85.85453628,37.31046922,12.35294118,47.84413643,280.101716,644.4014043,2.300597845,81.88524327,105.2870754,120.2874699,10,45,50,2,10_45_50_2,45_50_2
PS-10_051_50_06_13_13_36_01_0.csv,77.54370582,43.48500083,20.88607595,64.00472446,299.0685594,680.4772698,2.27532199,573.4859566,618.3402602,120.3901739,10,51,50,0,10_51_50_0,51_50_0
PS-10_051_50_06_13_13_36_01_1.csv,78.22095687,47.35062763,24.52830189,68.58208081,389.2924007,865.3620218,2.222910132,431.3645522,530.7962216,120.148484,10,51,50,1,10_51_50_1,51_50_1
PS-10_051_50_06_13_13_36_01_2.csv,82.40417987,45.2385027,20.48192771,64.51258214,257.989397,1191.667473,4.619056004,1023.641007,33.16442252,120.4027121,10,51,50,2,10_51_50_2,51_50_2
PS-10_005_50_06_01_13_53_48_0.csv,83.5004093,40.27145087,20.71005917,48.04292437,273.1194093,655.5615463,2.400274474,63.65008789,469.7277537,120.7838891,10,5,50,0,10_5_50_0,5_50_0
PS-10_005_50_06_01_13_53_48_1.csv,83.46018382,33.79894894,16.66666667,45.57511916,144.6657711,663.5081833,4.586490489,365.2427086,30.71036466,120.0365558,10,5,50,1,10_5_50_1,5_50_1
PS-10_005_50_06_01_13_53_48_2.csv,85.23042901,37.94560798,17.54385965,52.05053796,259.5144825,652.5041538,2.514326551,322.7300152,256.9277134,120.1663067,10,5,50,2,10_5_50_2,5_50_2
PS-10_005_50_06_01_14_45_39_0.csv,79.16698203,46.18411255,9.615384615,86.15664346,147.8254995,495.1219916,3.349367959,103.7755989,434.2415781,120.5591379,10,5,50,0,10_5_50_0,5_50_0
PS-10_005_50_06_01_14_45_39_1.csv,80.62673643,29.3858524,8.125,46.79157449,94.60190257,610.9994098,6.45863765,77.01980126,69.25408799,120.4781249,10,5,50,1,10_5_50_1,5_50_1
PS-10_005_50_06_01_14_45_39_2.csv,80.99717172,27.74132835,9.202453988,36.03205424,86.68305303,256.6494336,2.960779814,38.52547972,36.38524939,120.5118774,10,5,50,2,10_5_50_2,5_50_2
PS-10_057_50_06_14_11_37_38_0.csv,69.43359375,34.51859321,14.08450704,64.24147689,127.4236991,1117.660364,8.771212668,506.399325,577.4943791,120.6076081,10,57,50,0,10_57_50_0,57_50_0
PS-10_057_50_06_14_11_37_38_1.csv,72.04804127,32.27659758,11.72413793,47.61274749,171.1098802,572.1635896,3.34383724,335.1207822,101.472668,120.6666999,10,57,50,1,10_57_50_1,57_50_1
PS-10_057_50_06_14_11_37_38_2.csv,73.34710484,41.68639257,17.68707483,64.82277457,430.9343003,1195.985284,2.775330911,75.56262389,487.5070711,120.2128022,10,57,50,2,10_57_50_2,57_50_2
PS-10_063_50_06_14_19_48_43_0.csv,76.1512917,45.81351808,31.78807947,108.9387078,366.5949824,1919.243284,5.235323383,738.7166876,2571.04333,120.4703528,10,63,50,0,10_63_50_0,63_50_0
PS-10_063_50_06_14_19_48_43_1.csv,77.6971187,40.59351311,18.35443038,61.26615918,255.0783313,876.3487014,3.435606218,351.1828889,581.2963825,120.7914141,10,63,50,1,10_63_50_1,63_50_1
PS-10_063_50_06_14_19_48_43_2.csv,77.34668132,45.16374907,18.70967742,66.85585808,468.6074288,652.4706725,1.392360924,1266.5843,319.8286289,120.4054213,10,63,50,2,10_63_50_2,63_50_2
PS-10_068_50_06_15_16_51_30_0.csv,71.74762292,40.95550636,15.97222222,70.53881186,201.1897258,1362.333612,6.771387588,273.5084041,402.0865331,120.4313915,10,68,50,0,10_68_50_0,68_50_0
PS-10_068_50_06_15_16_51_30_1.csv,72.04560388,36.76193457,13.01369863,54.54474118,218.3594289,573.8605227,2.628054697,221.2732625,334.892385,120.8529343,10,68,50,1,10_68_50_1,68_50_1
PS-10_068_50_06_15_16_51_30_2.csv,72.94921875,33.09828853,14.28571429,54.13422305,254.3391387,356.0341416,1.399840164,370.0784765,188.5007391,120.007859,10,68,50,2,10_68_50_2,68_50_2
PS-10_069_50_06_19_19_56_16_0.csv,71.5607587,40.67887222,21.76870748,54.96005813,222.7453196,915.3253989,4.109291277,278.996971,499.2076101,120.6500363,10,69,50,0,10_69_50_0,69_50_0
PS-10_069_50_06_19_19_56_16_1.csv,71.500187,50.59079832,24.30555556,62.75552042,391.4626056,730.9321605,1.867182586,323.5799927,154.529577,120.2761525,10,69,50,1,10_69_50_1,69_50_1
PS-10_069_50_06_19_19_56_16_2.csv,72.94921875,45.13426945,14.09395973,59.42444355,211.8780125,631.5774607,2.980854187,608.457209,533.6929317,120.3476084,10,69,50,2,10_69_50_2,69_50_2
PS-10_074_50_06_16_19_35_48_0.csv,69.43359375,36.11779207,13.66906475,65.71442441,101.662929,712.695181,7.010374265,187.2182144,344.1185067,120.2758596,10,74,50,0,10_74_50_0,74_50_0
PS-10_074_50_06_16_19_35_48_1.csv,72.50014946,37.6172509,15.86206897,49.70251452,231.2063688,648.9295329,2.806711321,63.56760363,298.5198668,120.1434114,10,74,50,1,10_74_50_1,74_50_1
PS-10_074_50_06_16_19_35_48_2.csv,73.21891138,27.50687445,8.163265306,32.33602045,187.1002657,137.044392,0.732464978,87.11535125,98.98815396,120.6281981,10,74,50,2,10_74_50_2,74_50_2
PS-10_007_50_05_29_16_03_21_0.csv,79.17871102,47.61925127,26.41509434,70.6485221,478.7590545,438.5485032,0.916010881,1369.065098,693.9968633,120.2923906,10,7,50,0,10_7_50_0,7_50_0
PS-10_007_50_05_29_16_03_21_1.csv,77.87230728,49.16899784,29.93630573,71.47493203,705.5453568,769.6600077,1.090872472,428.8120382,889.5647169,120.4948044,10,7,50,1,10_7_50_1,7_50_1
PS-10_007_50_05_29_16_03_21_2.csv,82.01542229,40.8441448,19.39393939,65.91381895,195.3718523,762.7043352,3.903859877,555.3055697,251.7314423,120.3386914,10,7,50,2,10_7_50_2,7_50_2
PS-10_075_50_06_16_14_07_30_0.csv,79.807845,44.03427122,21.60493827,63.76691735,283.1184557,2058.305817,7.270122363,281.0970563,165.8123778,120.4243004,10,75,50,0,10_75_50_0,75_50_0
PS-10_075_50_06_16_14_07_30_1.csv,80.14808626,62.97695413,33.95061728,86.45021473,622.9655079,789.8351984,1.267863451,421.5405229,1094.320554,120.2273049,10,75,50,1,10_75_50_1,75_50_1
PS-10_075_50_06_16_14_07_30_2.csv,77.71799965,52.18597848,29.48717949,67.92973023,551.3773325,1456.119908,2.640877348,294.1542769,293.1714535,120.023653,10,75,50,2,10_75_50_2,75_50_2
PS-10_078_50_06_16_19_00_30_0.csv,65.84951252,56.44599075,31.06060606,98.0521657,470.5196069,2362.95655,5.022015057,395.1575248,1762.603123,121.0688543,10,78,50,0,10_78_50_0,78_50_0
PS-10_078_50_06_16_19_00_30_1.csv,64.1590663,76.44781448,35.15625,124.9607462,704.0217212,3223.05888,4.578067385,2468.475873,2887.597061,120.5800819,10,78,50,1,10_78_50_1,78_50_1
PS-10_078_50_06_16_19_00_30_2.csv,64.35422133,61.47640966,30.76923077,96.66836528,754.1893176,3302.032195,4.378253732,582.8698465,1054.539834,120.2024817,10,78,50,2,10_78_50_2,78_50_2
PS-10_096_50_06_19_16_45_28_0.csv,79.79310064,38.2708502,15.72327044,54.98022484,192.9326092,1245.623429,6.45626177,154.7848554,146.0003066,120.7404633,10,96,50,0,10_96_50_0,96_50_0
PS-10_096_50_06_19_16_45_28_1.csv,80.72240821,39.47048354,20.98765432,51.99260049,421.0988696,369.9264927,0.87847895,331.5369621,393.9915831,120.6248987,10,96,50,1,10_96_50_1,96_50_1
PS-10_096_50_06_19_16_45_28_2.csv,81.88307952,34.53157762,14.11042945,55.93324582,175.3352261,722.8461672,4.122652265,256.5115901,471.7631535,120.5536777,10,96,50,2,10_96_50_2,96_50_2
